-1.590251401648856699e-01
-9.564885171130299568e-02
-1.136644463986158371e-01
-1.609553824528120458e-01
-1.458351511973887682e-01
-1.355405256617814302e-01
-1.184900521184317768e-01
-2.352697105379775167e-01
-1.503390498692169785e-01
-1.027264067670330405e-01
-2.349480034899897873e-01
-2.420255585457198322e-01
-1.297497987980023026e-01
-2.934986862237565219e-01
-3.308167037903331220e-01
-3.044367258553393185e-01
-1.677112304605543613e-01
-1.969865718274377286e-01
-2.462077501695603132e-01
-1.718934220843948424e-01
-2.426689726416952908e-01
-1.918392590596340597e-01
-2.175758228986524045e-01
-2.124285101308487356e-01
-5.016431462718173862e-01
-4.440575846820138395e-01
-4.601429370814003050e-01
-4.363366155303083360e-01
-3.674913072609342635e-01
-4.131737080751918256e-01
-3.134445231989957392e-01
-3.224523205426521599e-01
-3.745688623166643083e-01
-5.325270228786394000e-01
-3.243825628305785358e-01
-2.539287193212658167e-01
-3.382159658940508962e-01
-3.221306134946644306e-01
-3.124794020550325513e-01
-2.195060651865787804e-01
-2.249750850023701787e-01
-1.937695013475604355e-01
-2.178975299466401339e-01
-2.381650739698670805e-01
-2.491031136014498770e-01
-1.043349420069716871e-01
-1.072303054388612509e-01
-1.551646555890329182e-01
-1.451917371014133096e-01
-9.790080104721710086e-02
-2.240099638584069908e-01
-1.747887855162844062e-01
-7.892008521594107151e-02
-1.818663405720144510e-01
-2.024555916432291269e-01
-2.947855144157074392e-01
-3.256693910225294530e-01
-3.887239724281243980e-01
-4.334412520984187722e-01
-4.733329260488972068e-01
-3.333903601742349565e-01
-3.044367258553393185e-01
-3.102274527191184461e-01
-1.998819352593272924e-01
-2.519984770333394408e-01
-2.478162854094989598e-01
-3.060452610952779651e-01
-2.256184990983456373e-01
-2.729094351525418460e-01
-1.435832018614746630e-01
-1.303932128939777613e-01
-1.329668692778795958e-01
-1.725368361803703010e-01
-1.628856247407384217e-01
-2.413821444497443736e-01
-2.146804594667628407e-01
-2.063160762190818787e-01
-2.963940496556460857e-01
-1.960214506834745407e-01
-3.044367258553393185e-01
-3.395027940860018134e-01
-3.523710760055109859e-01
-2.838474747841246426e-01
-3.652393579250201583e-01
-3.211654923507012427e-01
-4.192861419869586825e-01
-3.710300847887992859e-01
-4.887748643523082137e-01
-5.228758114390075207e-01
-6.039459875319153070e-01
-6.277523090830072761e-01
-5.933296549483202398e-01
-6.296825513709336519e-01
-7.088224851759150624e-01
-6.303259654669091105e-01
-6.798688508570194244e-01
-6.386903487145900726e-01
-6.760083662811666727e-01
-6.184228046913631260e-01
-5.450735977501608431e-01
-3.954798204358667135e-01
-3.771425187005661428e-01
-4.096349305473268032e-01
-3.510842478135600686e-01
-3.095840386231429875e-01
-3.333903601742349565e-01
-3.912976288120262325e-01
-3.430415716138668358e-01
-3.797161750844679773e-01
-3.456152279977686703e-01
-3.462586420937441289e-01
-4.176776067470200360e-01
-2.909250298398546875e-01
-2.619713955209590495e-01
-1.918392590596340597e-01
-2.130719242268241942e-01
-1.921609661076217890e-01
-1.847617040039040148e-01
-1.165598098305054009e-01
-1.053000631509348750e-01
-3.677646192954853177e-02
-1.107690829667262733e-01
1.855715032434090972e-02
5.297980445902794600e-02
9.287147840950638056e-02
1.797323813661932945e-01
3.801558722625486553e-01
5.825096054468303919e-01
8.060960037983022630e-01
1.042550684069283307e+00
9.235190763138234615e-01
9.203020058339461684e-01
9.286663890816271305e-01
8.524218187085352838e-01
9.257710256497375667e-01
8.868444728432223201e-01
9.026081181946210563e-01
8.273286689654923975e-01
8.974608054268173873e-01
7.932277218787930906e-01
7.420763012487441301e-01
8.443791425088420510e-01
7.636306734639219940e-01
7.340336250490508974e-01
6.899597594747319818e-01
6.700139224994927645e-01
6.519983278121799231e-01
7.420763012487441301e-01
5.641723037115298212e-01
6.616495392518118024e-01
6.542502771480940282e-01
6.732309929793700576e-01
5.036913786898367107e-01
4.197258391650393605e-01
2.994074032176285982e-01
3.370471278321929276e-01
2.900778988259844482e-01
1.848796941339969635e-01
2.624110926990397274e-01
2.784964450984261930e-01
2.727057182346470654e-01
3.331866432563401759e-01
3.125973921851255000e-01
2.514730530674569309e-01
1.823060377500951290e-01
1.478833836154080927e-01
1.565694739110767841e-01
2.119030861649662256e-01
3.222486036247573793e-01
2.714188900426961482e-01
2.405350134358741343e-01
1.829494518460705876e-01
1.539958175271749496e-01
1.359802228398621082e-01
1.784455531742423773e-01
1.765153108863160014e-01
9.737537708133459091e-02
1.395190003677271307e-01
1.665423923986963928e-01
1.285809607361443341e-01
1.478833836154080927e-01
1.070265885209664702e-01
1.157126788166351616e-01
2.263799033244140446e-01
7.517759077018126845e-02
-5.575717776082456112e-02
1.498136259033344686e-01
1.301894959760829806e-01
1.231119409203529358e-01
2.025735817733220756e-01
1.031661039451137185e-01
1.253638902562670410e-01
1.372670510318130255e-01
7.453417667420580983e-02
4.461542121134698391e-02
1.260073043522424996e-01
1.906704209977760911e-01
2.733491323306225240e-01
1.813409166061319411e-01
1.839145729900337756e-01
2.884693635860458016e-01
2.415001345798373222e-01
7.485588372219353914e-02
2.858957072021439672e-01
8.643733744975179434e-02
1.134607294807210565e-01
1.295460818801075220e-01
1.108870730968192220e-01
5.587516789091750979e-02
1.610733725829049945e-01
9.834049822529777884e-02
1.263290114002302289e-01
1.745850685983896255e-01
1.800540884141810238e-01
1.633253219188190997e-01
1.916355421417392790e-01
2.418218416278250515e-01
1.852014011819846928e-01
2.057906522531993687e-01
2.341008724761195481e-01
1.584997161990031600e-01
7.131710619432851672e-02
8.225514582591131330e-02
1.112087801448069513e-01
3.239055338781327009e-02
1.009141546091996133e-01
1.128173153847455978e-01
1.356585157918743789e-01
9.705367003334686160e-02
1.954960267175920308e-01
1.774804320302791893e-01
1.639687360147945583e-01
9.769708412932232022e-02
8.450709516182541847e-02
1.375887580798007548e-01
1.398407074157148600e-01
1.642904430627822876e-01
1.742633615504018962e-01
7.389076257823035121e-02
2.456823262036778033e-01
3.939892753260210156e-01
4.962921165861189365e-01
5.519474358879961073e-01
6.034205635660327971e-01
5.033696716418489814e-01
5.451915878802537918e-01
4.747377443709410727e-01
3.843380638863891363e-01
4.213343744049780071e-01
3.904504977981559932e-01
4.062141431495547295e-01
3.476634604157879949e-01
2.553335376433096826e-01
6.327442999463528395e-02
1.855231082299724221e-01
-4.095865355338901281e-02
-1.751104925642721355e-01
-3.620222874451428652e-01
-4.498483115457929671e-01
-4.759065824327990413e-01
-5.766008884529583156e-01
-4.212163842748850584e-01
-5.006780251278541982e-01
-4.472746551618911326e-01
-4.591778159374371171e-01
-5.743489391170442104e-01
-4.167124856030568480e-01
-4.511351397377438843e-01
-4.302241816185414791e-01
-4.356932014343328774e-01
-4.411622212501242757e-01
-4.308675957145169377e-01
-3.507625407655723393e-01
-4.089915164513513446e-01
-3.835766596603207290e-01
-4.202512631309218705e-01
-3.417547434219159186e-01
-3.237391487346030772e-01
-4.717243908089585602e-01
-5.186936198151670396e-01
-5.637326065334491432e-01
-4.356932014343328774e-01
-5.222323973430320621e-01
-4.588561088894493878e-01
-4.356932014343328774e-01
-4.019139613956212997e-01
-3.970883556758053601e-01
-3.736037411727011204e-01
-3.578400958213023841e-01
-4.179993137950077653e-01
-4.044876177795231342e-01
-3.066886751912534237e-01
-3.700649636448360980e-01
-3.015413624234497547e-01
-2.532853052252903581e-01
-2.526418911293148994e-01
-2.661535871447995305e-01
-1.503390498692169785e-01
1.623602007748559117e-01
3.180664120009168983e-01
4.589740990195423365e-01
6.166105525335296988e-01
8.199294068617746234e-01
6.577890546759590507e-01
8.009486910304985940e-01
6.114632397657260299e-01
7.247041206574067473e-01
6.494246714282780886e-01
5.570947486557997763e-01
5.863700900226831436e-01
4.567221496836282313e-01
3.283610375365242362e-01
4.222994955489411950e-01
3.904504977981559932e-01
4.544702003477141261e-01
3.872334273182787001e-01
4.081443854374811053e-01
3.898070837021805346e-01
3.364037137362174690e-01
2.154418636928312480e-01
2.813918085303157568e-01
2.878259494900703430e-01
2.138333284528926015e-01
1.359802228398621082e-01
9.319318545749410987e-02
1.279375466401688755e-01
7.839466125005856156e-02
4.204176482744514942e-02
7.839466125005856156e-02
-4.610596632119268179e-02
-4.835791565710678697e-02
-3.902841126546263695e-02
-8.824958960758522153e-02
-1.223505366942845285e-01
-1.088388406787998974e-01
-1.200985873583704233e-01
-1.960214506834745407e-01
-1.220288296462967992e-01
-1.001527503831312060e-01
-1.825097546679899096e-01
-1.709283009404316545e-01
-1.973082788754254580e-01
-2.182192369946278632e-01
-1.551646555890329182e-01
-1.162381027825176716e-01
-1.738236643723212183e-01
-3.958015274838544428e-01
-6.402988839545287192e-01
-6.998146878322586417e-01
-7.837802273570559919e-01
-8.857613615691661835e-01
-8.513387074344791472e-01
-7.889275401248596609e-01
-7.976136304205283523e-01
-7.287683221511542797e-01
-7.467839168384671211e-01
-6.448027826263569295e-01
-6.840510424808599055e-01
-7.651212185737676919e-01
-6.393337628105655313e-01
-6.238918245071545243e-01
-6.068413509638048708e-01
-5.042168026557192206e-01
-5.341355581185780466e-01
-5.235192255349829793e-01
-4.617514723213389516e-01
-4.964958335040137172e-01
-4.566041595535352826e-01
-4.337629591464065015e-01
-3.121576950070448220e-01
-3.497974196216091514e-01
-2.941421003197319806e-01
-2.780567479203455150e-01
-2.854560100240632892e-01
-2.320526400581002235e-01
-1.702848868444561958e-01
-2.014904704992659390e-01
-1.995602282113395631e-01
-1.471219793893396854e-01
-2.040641268831677735e-01
-1.583817260689102113e-01
-2.146804594667628407e-01
-1.558080696850083768e-01
-1.989168141153641045e-01
-1.268544353661127388e-01
-1.088388406787998974e-01
-1.114124970627017319e-01
-2.037424198351800442e-01
-2.997221890836954117e-03
-2.905549277784302831e-02
6.653989548794925213e-03
-1.490038266638293862e-02
5.415556370280683041e-04
1.184969733003526926e-03
2.113080670824274421e-02
1.398407074157148600e-01
3.476634604157879949e-01
6.030988565180450678e-01
6.384866317966952920e-01
7.655609157518483698e-01
8.437357284128665924e-01
6.851341537549160421e-01
5.937693521264009178e-01
6.468510150443762541e-01
6.552153982920572162e-01
6.738744070753455162e-01
5.007960152579471469e-01
5.886220393585972488e-01
4.065358501975424588e-01
4.805284712347202003e-01
4.432104536681436002e-01
4.306638787966221571e-01
3.959195176139473915e-01
3.257873811526224017e-01
3.991365880938246846e-01
3.434812687919475138e-01
2.939383834018371999e-01
3.566712577594444156e-01
2.865391212981194258e-01
2.749576675705611706e-01
2.781747380504384637e-01
2.550118305953219533e-01
2.215542976045981050e-01
2.530815883073955774e-01
3.061632512253709137e-01
3.750085594947449863e-01
4.010668303817510605e-01
3.750085594947449863e-01
4.676601893152110279e-01
4.901796826743520796e-01
3.582797929993830621e-01
3.270742093445733190e-01
3.216051895287819207e-01
2.608025574591010809e-01
8.579392335377633572e-02
1.150692647206597030e-01
1.437495870050042868e-02
-2.712525048991665244e-02
-5.028815794503316283e-02
-9.629226580727845430e-02
-1.139861534466035664e-01
-2.803086972562596202e-01
-1.284629706060513854e-01
-8.631934731965884566e-02
-6.605180329643189907e-02
-1.390793031896464527e-01
-1.139861534466035664e-01
-1.461568582453764975e-01
-2.040641268831677735e-01
-1.355405256617814302e-01
-1.622422106447629631e-01
-5.640059185680001974e-02
-1.783275630441494286e-01
-1.815446335240267217e-01
-1.799360982840880752e-01
-2.301223977701738477e-01
-1.242807789822109044e-01
-2.323743471060879529e-01
-1.722151291323825717e-01
-2.838474747841246426e-01
-1.352188186137937009e-01
-3.279213403584435582e-01
-3.224523205426521599e-01
-2.178975299466401339e-01
-1.940912083955481648e-01
-2.220797215704806149e-01
-2.600411532330326736e-01
-2.178975299466401339e-01
-1.783275630441494286e-01
-2.108199748909100890e-01
-2.597194461850449443e-01
-2.516767699853517115e-01
-1.735019573243334889e-01
-2.043858339311555028e-01
-2.365565387299284339e-01
-2.127502171788364649e-01
-1.989168141153641045e-01
-2.587543250410817564e-01
-2.137153383227996528e-01
-1.854051180998794734e-01
-1.088388406787998974e-01
-2.648667589528486133e-01
-1.503390498692169785e-01
-1.689980586525052786e-01
-1.667461093165911734e-01
-1.558080696850083768e-01
-2.462077501695603132e-01
-2.085680255549959838e-01
-1.712500079884193838e-01
-2.844908888801001012e-01
-1.976299859234131873e-01
-1.554863626370206475e-01
-1.551646555890329182e-01
-1.188117591664195061e-01
-1.976299859234131873e-01
-1.117342041106894612e-01
-1.751104925642721355e-01
-1.622422106447629631e-01
-1.677112304605543613e-01
-1.281412635580636561e-01
-1.702848868444561958e-01
-1.760756137082353234e-01
-9.404031647136434913e-02
-1.155946886865422130e-01
-1.500173428212292492e-01
-1.654592811246402562e-01
-1.982734000193886459e-01
-1.252459001261740923e-01
-1.377924749976955354e-01
-2.201494792825542390e-01
-1.615987965487875044e-01
-1.274978494620881975e-01
-1.332885763258673251e-01
-1.815446335240267217e-01
-1.210637085023336112e-01
-8.149374159984290600e-02
-1.101256688707508147e-01
-2.043858339311555028e-01
-1.139861534466035664e-01
-2.487814065534621477e-01
-2.587543250410817564e-01
-2.243316709063947201e-01
-2.198277722345665097e-01
-1.384358890936709940e-01
-1.599902613088488579e-01
-1.934477942995727062e-01
-1.165598098305054009e-01
-1.574166049249470234e-01
-1.731802502763457596e-01
-1.339319904218427837e-01
-1.529127062531188130e-01
-1.104473759187385440e-01
-1.258893142221495509e-01
-1.030481138150207698e-01
-8.181544864783063531e-02
-1.606336754048243165e-01
-7.924179226392880082e-02
-1.760756137082353234e-01
-1.374707679497078061e-01
-6.476497510448098183e-02
-1.075520124868489802e-01
-4.900132975308224559e-02
-6.862545968033373356e-02
2.209592785220593214e-02
6.359613704262301326e-02
1.276158395921811461e-01
-2.056726621231064200e-01
-3.420280554564669728e-02
-2.680354344192892313e-02
-3.548963373759761453e-02
6.359613704262301326e-02
2.402617014013230801e-02
3.721615910762920976e-02
-5.897424824070185423e-02
-1.027264067670330405e-01
-8.310227683978155255e-02
1.469666574848815799e-02
-4.610596632119268179e-02
1.662690803641453385e-02
4.686737054726108909e-02
3.115212020929902792e-03
5.045454308856278658e-03
-1.066979602910578251e-03
4.300688597140833735e-02
-1.554379676235839725e-02
4.558054235531017184e-02
5.844882427481934428e-02
6.681320752250030637e-02
1.272941325441934168e-01
6.070077361073344946e-02
3.721615910762920976e-02
5.619687493890523911e-02
7.003027800237759948e-02
1.282592536881566048e-01
1.356585157918743789e-01
1.076700026169419289e-01
1.675075135426595807e-01
1.343716875999234617e-01
9.673196298535913229e-02
1.568911809590645134e-01
1.356585157918743789e-01
9.351489250548183918e-02
1.243987691123038530e-01
1.488485047593712807e-01
1.031661039451137185e-01
1.671858064946718514e-01
1.984397851629182696e-02
1.858448152779601514e-01
2.669149913708679378e-01
2.466474473476409912e-01
3.161361697129905224e-01
2.569420728832483292e-01
2.447172050597146153e-01
1.137824365287087858e-01
1.321197382640093565e-01
1.778021390782669187e-01
1.993565112934447825e-01
1.205382845364511013e-01
2.102945509250275791e-01
1.523872822872363031e-01
1.153909717686474323e-01
1.617167866788804531e-01
1.819843307021073997e-01
1.642904430627822876e-01
1.742633615504018962e-01
1.823060377500951290e-01
1.530306963832117617e-01
2.032169958692975342e-01
2.144767425488680601e-01
1.514221611432731152e-01
1.485267977113835514e-01
1.826277447980828583e-01
1.430577778955921531e-01
1.408058285596780479e-01
3.850298729958012700e-02
2.727057182346470654e-01
2.903996058739721775e-01
3.277176234405487776e-01
3.984931739978492260e-01
3.505588238476775587e-01
3.270742093445733190e-01
2.955469186417758465e-01
3.460549251758493483e-01
3.833729427424259484e-01
2.987639891216531396e-01
3.286827445845119655e-01
3.222486036247573793e-01
2.990856961696408689e-01
3.676092973910272121e-01
2.965120397857390344e-01
3.573146718554198742e-01
3.203183613368310034e-01
4.287336365086957812e-01
2.299186808522790670e-01
2.910430199699476361e-01
3.016593525535427034e-01
2.308838019962422550e-01
2.122247932129539549e-01
2.682018195628188550e-01
2.736708393786102533e-01
1.787672602222301066e-01
1.346933946479111910e-01
3.109888569451868534e-01
3.000508173136040568e-01
2.730274252826347947e-01
2.183372271247208118e-01
2.620893856510519981e-01
2.540467094513587654e-01
1.784455531742423773e-01
1.787672602222301066e-01
1.794106743182055652e-01
1.794106743182055652e-01
1.790889672702178359e-01
1.800540884141810238e-01
1.794106743182055652e-01
1.797323813661932945e-01
1.803757954621687531e-01
1.810192095581442118e-01
1.803757954621687531e-01
1.800540884141810238e-01
1.800540884141810238e-01
1.794106743182055652e-01
1.794106743182055652e-01
1.794106743182055652e-01
1.794106743182055652e-01
1.790889672702178359e-01
1.778021390782669187e-01
1.787672602222301066e-01
1.790889672702178359e-01
1.787672602222301066e-01
1.797323813661932945e-01
1.797323813661932945e-01
1.800540884141810238e-01
1.971045619575306773e-01
2.202674694126471877e-01
2.903996058739721775e-01
2.939383834018371999e-01
2.704537688987329602e-01
1.749067756463773549e-01
1.507787470472976565e-01
1.218251127284020185e-01
1.330848594079725444e-01
6.616979342652484775e-02
2.588723151711747050e-01
2.051472381572239101e-01
1.195731633924879134e-01
1.726548263104632497e-01
1.684726346866227686e-01
1.745850685983896255e-01
1.372670510318130255e-01
3.303396748378872871e-02
1.884184716618619859e-01
1.184969733003526926e-03
2.016568556427955627e-02
1.520655752392485738e-01
1.180130231659859419e-02
4.043322958750650287e-02
-2.841207868186756968e-02
-7.501120562665164471e-03
-8.921471075154840946e-02
2.756494766799733043e-02
1.630520098842680454e-02
-4.707108746515586972e-02
-1.233156578382477164e-01
1.179646281525492668e-01
-9.178836713545024395e-02
-1.725368361803703010e-01
3.013860405189916492e-02
3.657274501165375113e-02
-2.712525048991665244e-02
-7.538130768807604909e-02
-1.972598838619887829e-02
-1.258893142221495509e-01
-5.768742004875093699e-02
-7.452725549228489399e-04
-1.271761424141004682e-01
-8.985812484752386808e-02
-6.058278348064050078e-02
-1.661026952206157148e-01
-9.243178123142570257e-02
-1.506607569172047079e-01
-1.812229264760389924e-01
-1.339319904218427837e-01
-1.056217701989226043e-01
-1.712500079884193838e-01
-6.315643986454233527e-02
-4.514084517722949386e-02
-1.004744574311189353e-01
-1.046566490549594164e-01
-1.223505366942845285e-01
-1.989168141153641045e-01
-1.242807789822109044e-01
-1.014395785750821233e-01
-9.082324599148705602e-02
-1.300715058459900320e-01
-1.197768803103826940e-01
-1.429397877654992044e-01
-1.468002723413519561e-01
-2.037424198351800442e-01
-1.197768803103826940e-01
-7.956349931191653013e-02
-1.242807789822109044e-01
-2.117850960348732769e-01
-2.937719982583075762e-02
-1.693197657004930079e-01
-1.406878384295850992e-01
-1.770407348521985114e-01
-1.307149199419654906e-01
-2.310875189141370356e-01
-1.541995344450697303e-01
-2.072811973630450666e-01
-2.256184990983456373e-01
-2.146804594667628407e-01
-1.229939507902599871e-01
-1.075520124868489802e-01
-1.435832018614746630e-01
-6.733863148838281631e-02
-1.751104925642721355e-01
-1.751104925642721355e-01
-2.153238735627382994e-01
-2.224014286184683442e-01
-8.567593322368338704e-02
-1.126993252546526492e-01
-1.918392590596340597e-01
-1.342536974698305130e-01
-8.466241706628352404e-03
-1.928043802035972476e-01
-2.873862523119896650e-01
-1.574166049249470234e-01
-8.599764027167111635e-02
-9.629226580727845430e-02
-2.937719982583075762e-02
-5.993936938466504216e-02
-9.753069898579269648e-03
-2.191843581385910511e-01
-1.738236643723212183e-01
-2.053509550751186907e-01
-2.841691818321123719e-01
-1.715717150364071131e-01
-1.451917371014133096e-01
-2.458860431215725839e-01
-1.818663405720144510e-01
-2.278704484342597425e-01
-1.455134441494010389e-01
-1.689980586525052786e-01
-2.166107017546892166e-01
-2.066377832670696080e-01
-1.172032239264808595e-01
-2.452426290255971253e-01
-1.693197657004930079e-01
-3.005762412794865668e-01
-8.438910503173246980e-02
-8.181544864783063531e-02
-3.018630694714374840e-01
-2.056726621231064200e-01
-4.060961530194617808e-01
-8.245886274380609393e-02
-2.066377832670696080e-01
-1.699631797964684665e-01
-1.918392590596340597e-01
-2.230448427144438028e-01
-1.207420014543458819e-01
-1.989168141153641045e-01
-7.248594425618648529e-02
-2.359131246339529753e-01
-1.435832018614746630e-01
-7.184253016021102667e-02
-1.043349420069716871e-01
-1.767190278042107821e-01
-1.152729816385544837e-01
-1.181683450704440475e-01
-4.288889584131538868e-02
-2.229964477010071278e-02
-1.718934220843948424e-01
-5.704400595277547836e-02
-1.979516929714009166e-01
-2.095331466989591718e-01
-1.265327283181250095e-01
-1.400444243336096406e-01
-1.287846776540391147e-01
-4.192377469735220075e-02
1.662690803641453385e-02
-1.442266159574501216e-01
-1.496956357732415199e-01
-4.867962270509451628e-02
-3.838499716948717833e-02
-4.321060288930311799e-02
-1.020829926710575819e-01
-6.733863148838281631e-02
-1.284629706060513854e-01
-7.538130768807604909e-02
-6.026107643265277147e-02
-7.409447949612513185e-02
-6.637351034441962838e-02
-7.501120562665164471e-03
-2.436340937856584787e-01
-8.696276141563430429e-02
-2.034207127871923149e-01
-2.133936312748119235e-01
-1.780058559961616993e-01
-1.757539066602475941e-01
-1.699631797964684665e-01
-1.175249309744685888e-01
-1.500173428212292492e-01
4.236347187543287873e-02
-8.664105436764657497e-02
1.184969733003526926e-03
4.558054235531017184e-02
-3.741987602552399039e-02
8.161173172993585467e-02
6.327442999463528395e-02
1.115304871927946806e-01
8.161173172993585467e-02
7.775124715408310294e-02
6.263101589865982533e-02
7.356905553024262190e-02
1.086351237609051168e-01
1.009141546091996133e-01
-3.581134078558534384e-02
1.260073043522424996e-01
8.547221630578860641e-02
1.646121501107700169e-01
1.034878109931014478e-01
1.771587249822914600e-01
1.038095180410891771e-01
7.582100486615672708e-02
1.691160487825982273e-01
1.829494518460705876e-01
1.681509276386350393e-01
1.691160487825982273e-01
9.544513479340821505e-02
1.350151016958989203e-01
1.494919188553467393e-01
1.411275356076657772e-01
1.279375466401688755e-01
1.131390224327333272e-01
2.476125684916041791e-01
1.681509276386350393e-01
2.337791654281318188e-01
1.176429211045615375e-01
1.282592536881566048e-01
2.019301676773466170e-01
3.560762386769056320e-02
2.862174142501316965e-01
1.491702118073590100e-01
1.568911809590645134e-01
1.141041435766965151e-01
6.745662161847576499e-02
1.520655752392485738e-01
1.289026677841320634e-01
1.977479760535061359e-01
1.749067756463773549e-01
1.530306963832117617e-01
1.511004540952853858e-01
1.832711588940583169e-01
2.180155200767330825e-01
2.611242645070888102e-01
1.922789562377147377e-01
2.321706301881931722e-01
2.292752667563036084e-01
1.758718967903405428e-01
1.549609386711381376e-01
1.681509276386350393e-01
2.450389121077023447e-01
1.446663131355307996e-01
2.273450244683772326e-01
2.276667315163649619e-01
1.247204761602915823e-01
2.514730530674569309e-01
2.035387029172852635e-01
2.038604099652729928e-01
1.880967646138742566e-01
1.829494518460705876e-01
1.887401787098497152e-01
2.038604099652729928e-01
1.243987691123038530e-01
1.350151016958989203e-01
1.346933946479111910e-01
1.848796941339969635e-01
8.032490353798493743e-02
1.897052998538129032e-01
2.353877006680704653e-01
2.415001345798373222e-01
1.272941325441934168e-01
3.447680969838984311e-01
2.527598812594078481e-01
3.100237358012236655e-01
1.649338571587577462e-01
1.861665223259478807e-01
2.521164671634323895e-01
1.658989783027209342e-01
2.209108835086226463e-01
2.701320618507452309e-01
1.806975025101564825e-01
1.427360708476044238e-01
2.315272160922177136e-01
1.765153108863160014e-01
2.559769517392851412e-01
2.344225795241072774e-01
1.874533505178987980e-01
2.238062469405122101e-01
2.498645178275182843e-01
2.238062469405122101e-01
2.717405970906838775e-01
2.321706301881931722e-01
1.128173153847455978e-01
1.864882293739356101e-01
2.894344847300089896e-01
1.572128880070522428e-01
2.102945509250275791e-01
2.308838019962422550e-01
2.016084606293588877e-01
2.128682073089294136e-01
1.729765333584509790e-01
2.099728438770398498e-01
2.765662028104998171e-01
1.993565112934447825e-01
2.141550355008803308e-01
2.247713680844753981e-01
2.801049803383648396e-01
4.081443854374811053e-01
4.567221496836282313e-01
3.035895948414690793e-01
3.524890661356039345e-01
3.608534493832848966e-01
3.344734714482910931e-01
1.443446060875430703e-01
2.678801125148311257e-01
2.517947601154446602e-01
2.678801125148311257e-01
2.231628328445367515e-01
2.530815883073955774e-01
1.768370179343037307e-01
2.250930751324631274e-01
1.935657844296656549e-01
1.906704209977760911e-01
2.151201566448435187e-01
1.266507184482179582e-01
1.636470289668068290e-01
4.622395645128563046e-02
2.994074032176285982e-01
1.588214232469908893e-01
4.976273397915065289e-02
9.158465021755546331e-02
6.874344981042668223e-02
1.005924475612118840e-01
1.340983755653724074e-02
3.978981549153104424e-02
1.437011919915676117e-01
4.080333164893090725e-03
-2.004769543418660760e-02
-1.168331218650564551e-02
7.297403644770383835e-03
1.534007984446361661e-02
2.820836176397278905e-02
2.241763490019366145e-02
-9.918762923916801810e-02
-1.178466380224563181e-01
-8.664105436764657497e-02
-1.332885763258673251e-01
-1.603119683568365872e-01
-9.725738695124164224e-02
-1.159163957345299423e-01
-1.628856247407384217e-01
-1.471219793893396854e-01
-1.348971115658059716e-01
-1.207420014543458819e-01
-2.349480034899897873e-01
-1.509824639651924372e-01
-1.040132349589839578e-01
-2.362348316819407046e-01
-2.436340937856584787e-01
-1.307149199419654906e-01
-2.938203932717442513e-01
-3.308167037903331220e-01
-3.054018469993025064e-01
-1.680329375085420907e-01
-2.027772986912168562e-01
-2.207928933785296977e-01
-2.043858339311555028e-01
-2.269053272902965546e-01
-1.883004815317690372e-01
-2.269053272902965546e-01
-2.133936312748119235e-01
-5.032516815117560327e-01
-4.447009987779892981e-01
-4.611080582253634930e-01
-4.373017366742715240e-01
-3.681347213569097221e-01
-4.131737080751918256e-01
-3.140879372949711978e-01
-3.227740275906398892e-01
-3.755339834606274962e-01
-5.328487299266271293e-01
-3.243825628305785358e-01
-2.536070122732780874e-01
-3.388593799900263548e-01
-3.234174416866153479e-01
-3.124794020550325513e-01
-2.198277722345665097e-01
-2.249750850023701787e-01
-1.931260872515849769e-01
-2.175758228986524045e-01
-2.388084880658425391e-01
-2.491031136014498770e-01
-1.046566490549594164e-01
-1.078737195348367095e-01
-1.551646555890329182e-01
-1.445483230054378510e-01
-9.822250809520483017e-02
-2.243316709063947201e-01
-1.744670784682966769e-01
-7.956349931191653013e-02
-1.825097546679899096e-01
-2.040641268831677735e-01
-2.944638073677197099e-01
-3.259910980705171824e-01
-3.890456794761121273e-01
-4.331195450504310429e-01
-4.511351397377438843e-01
-3.205220782547257841e-01
-3.185918359667994082e-01
-2.925335650797933340e-01
-1.738236643723212183e-01
-2.648667589528486133e-01
-2.491031136014498770e-01
-3.076537963352166116e-01
-2.249750850023701787e-01
-2.732311422005295753e-01
-1.439049089094623923e-01
-1.310366269899532199e-01
-1.326451622298918664e-01
-1.728585432283580303e-01
-1.615987965487875044e-01
-2.407387303537689149e-01
-2.140370453707873821e-01
-2.069594903150573373e-01
-2.963940496556460857e-01
-1.969865718274377286e-01
-3.054018469993025064e-01
-3.398245011339895427e-01
-3.523710760055109859e-01
-2.838474747841246426e-01
-3.655610649730078876e-01
-3.205220782547257841e-01
-4.176776067470200360e-01
-3.710300847887992859e-01
-4.890965714002959430e-01
-5.231975184869952500e-01
-6.039459875319153070e-01
-6.277523090830072761e-01
-5.933296549483202398e-01
-6.303259654669091105e-01
-7.081790710799396038e-01
-6.293608443229459226e-01
-6.805122649529948831e-01
-6.383686416666023433e-01
-6.760083662811666727e-01
-6.181010976433753967e-01
-5.450735977501608431e-01
-3.948364063398912549e-01
-3.884022653801366687e-01
-3.909759217640385032e-01
-3.526927830534987152e-01
-2.893164945999160409e-01
-3.517276619095355272e-01
-3.932278710999526083e-01
-3.430415716138668358e-01
-3.793944680364802480e-01
-3.462586420937441289e-01
-3.462586420937441289e-01
-4.176776067470200360e-01
-2.912467368878424168e-01
-2.622931025689467788e-01
-1.918392590596340597e-01
-2.133936312748119235e-01
-1.921609661076217890e-01
-1.834748758119530976e-01
-1.152729816385544837e-01
-1.053000631509348750e-01
-3.677646192954853177e-02
-1.104473759187385440e-01
1.887885737232863903e-02
5.426663265097886324e-02
9.287147840950638056e-02
1.806975025101564825e-01
3.804775793105363846e-01
5.825096054468303919e-01
8.054525897023268044e-01
1.042550684069283307e+00
9.222322481218725443e-01
9.212671269779093564e-01
9.283446820336394012e-01
8.524218187085352838e-01
9.251276115537621081e-01
8.865227657952345908e-01
9.035732393385842443e-01
8.270069619175046682e-01
8.990693406667560339e-01
7.938711359747685492e-01
7.417545942007564008e-01
8.453442636528052390e-01
7.604136029840447009e-01
7.182699796976521611e-01
7.025063343462534249e-01
6.371998036047443748e-01
6.738744070753455162e-01
7.536577549763023853e-01
5.641723037115298212e-01
6.616495392518118024e-01
6.536068630521185696e-01
6.725875788833945990e-01
5.033696716418489814e-01
4.210126673569902778e-01
3.000508173136040568e-01
3.367254207842051983e-01
2.900778988259844482e-01
1.852014011819846928e-01
2.624110926990397274e-01
2.781747380504384637e-01
2.727057182346470654e-01
3.341517644003033638e-01
3.116322710411623120e-01
2.511513460194692016e-01
1.829494518460705876e-01
1.482050906633958220e-01
1.562477668630890548e-01
2.119030861649662256e-01
3.228920177207328379e-01
2.714188900426961482e-01
2.411784275318495929e-01
1.826277447980828583e-01
1.546392316231504083e-01
1.375887580798007548e-01
1.794106743182055652e-01
1.768370179343037307e-01
9.673196298535913229e-02
1.388755862717516720e-01
1.652555642067454755e-01
1.289026677841320634e-01
1.465965554234571755e-01
1.067048814729787409e-01
1.147475576726719737e-01
2.250930751324631274e-01
4.397200711537152529e-02
3.758626116905361414e-03
1.514221611432731152e-01
1.198948704404756427e-01
1.276158395921811461e-01
2.109379650210030377e-01
1.031661039451137185e-01
1.266507184482179582e-01
1.369453439838252962e-01
7.356905553024262190e-02
4.493712825933471322e-02
1.256855973042547703e-01
1.880967646138742566e-01
2.736708393786102533e-01
1.810192095581442118e-01
1.835928659420460463e-01
2.887910706340335310e-01
2.408567204838618636e-01
7.517759077018126845e-02
2.862174142501316965e-01
8.675904449773952365e-02
1.124956083367578685e-01
1.285809607361443341e-01
1.102436590008437634e-01
5.651858198689296842e-02
1.610733725829049945e-01
9.769708412932232022e-02
1.263290114002302289e-01
1.732982404064387083e-01
1.790889672702178359e-01
1.620384937268681824e-01
1.922789562377147377e-01
2.415001345798373222e-01
1.832711588940583169e-01
2.048255311092361808e-01
2.337791654281318188e-01
1.562477668630890548e-01
7.131710619432851672e-02
8.161173172993585467e-02
1.112087801448069513e-01
3.335567453177645802e-02
1.028443968971259892e-01
1.205382845364511013e-01
1.169995070085860789e-01
1.047746391850523651e-01
2.279884385643526912e-01
1.581780091510154307e-01
1.636470289668068290e-01
9.673196298535913229e-02
8.418538811383768916e-02
1.359802228398621082e-01
1.388755862717516720e-01
1.639687360147945583e-01
1.742633615504018962e-01
7.485588372219353914e-02
2.456823262036778033e-01
3.930241541820578277e-01
4.966138236341066658e-01
5.506606076960451901e-01
6.027771494700573385e-01
5.020828434498980641e-01
5.455132949282415211e-01
4.737726232269778848e-01
3.846597709343768656e-01
4.213343744049780071e-01
3.891636696062050760e-01
4.049273149576038122e-01
3.476634604157879949e-01
2.546901235473342240e-01
6.263101589865982533e-02
1.845579870860092342e-01
-4.192377469735220075e-02
-1.751104925642721355e-01
-3.613788733491674066e-01
-4.504917256417684257e-01
-4.765499965287744999e-01
-5.766008884529583156e-01
-4.218597983708605170e-01
-5.006780251278541982e-01
-4.485614833538420498e-01
-4.588561088894493878e-01
-5.756357673089951277e-01
-4.183210208429954946e-01
-4.488831904018297791e-01
-4.334412520984187722e-01
-4.305458886665292084e-01
-4.521002608817070723e-01
-4.199295560829341412e-01
-3.414330363739281893e-01
-4.093132234993390739e-01
-3.842200737562961876e-01
-4.202512631309218705e-01
-3.411113293259404600e-01
-3.247042698785662651e-01
-4.720460978569462895e-01
-5.203021550551056862e-01
-5.640543135814368725e-01
-4.353714943863451481e-01
-5.228758114390075207e-01
-4.591778159374371171e-01
-4.363366155303083360e-01
-4.022356684436090291e-01
-3.974100627237930894e-01
-3.729603270767256618e-01
-3.568749746773391962e-01
-4.176776067470200360e-01
-4.044876177795231342e-01
-3.070103822392411530e-01
-3.703866706928238273e-01
-3.018630694714374840e-01
-2.523201840813271701e-01
-2.529635981773026288e-01
-2.661535871447995305e-01
-1.513041710131801665e-01
1.623602007748559117e-01
3.177447049529291689e-01
4.586523919715546072e-01
6.162888454855419695e-01
8.196076998137868941e-01
6.574673476279713213e-01
7.993401557905599475e-01
6.114632397657260299e-01
7.250258277053944767e-01
6.478161361883394420e-01
5.580598697997629642e-01
5.648157178075052798e-01
4.091095065814442933e-01
3.473417533678002656e-01
4.416019184282049537e-01
3.676092973910272121e-01
4.605826342594809830e-01
3.856248920783400536e-01
4.075009713415056467e-01
3.891636696062050760e-01
3.364037137362174690e-01
2.154418636928312480e-01
2.817135155783034861e-01
2.878259494900703430e-01
2.141550355008803308e-01
1.350151016958989203e-01
9.319318545749410987e-02
1.282592536881566048e-01
7.678612601011991501e-02
4.139835073146969080e-02
7.742954010609537363e-02
-4.739279451314359903e-02
-4.900132975308224559e-02
-4.160206764936447144e-02
-8.857129665557295084e-02
-1.226722437422722578e-01
-1.104473759187385440e-01
-1.207420014543458819e-01
-1.960214506834745407e-01
-1.226722437422722578e-01
-1.014395785750821233e-01
-1.825097546679899096e-01
-1.722151291323825717e-01
-1.982734000193886459e-01
-2.185409440426155925e-01
-1.570948978769592941e-01
-1.165598098305054009e-01
-1.747887855162844062e-01
-3.970883556758053601e-01
-6.412640050984919071e-01
-7.004581019282341003e-01
-7.853887625969946384e-01
-8.835094122332520783e-01
-8.368618902750313282e-01
-7.850670555490069091e-01
-8.120904475799761713e-01
-6.904851834406144917e-01
-7.641560974298045039e-01
-6.454461967223323882e-01
-6.853378706728108227e-01
-7.660863397177308798e-01
-6.406205910025164485e-01
-6.251786526991054416e-01
-6.078064721077680588e-01
-5.058253378956578672e-01
-5.347789722145535052e-01
-5.254494678229093552e-01
-4.620731793693266809e-01
-4.964958335040137172e-01
-4.572475736495107412e-01
-4.337629591464065015e-01
-3.128011091030202806e-01
-3.488322984776459634e-01
-2.944638073677197099e-01
-2.787001620163209736e-01
-2.864211311680264771e-01
-2.339828823460265994e-01
-1.709283009404316545e-01
-2.027772986912168562e-01
-2.011687634512782097e-01
-1.480871005333028734e-01
-2.037424198351800442e-01
-1.590251401648856699e-01
-2.143587524187751114e-01
-1.574166049249470234e-01
-1.992385211633518338e-01
-1.284629706060513854e-01
-1.098039618227630854e-01
-1.123776182066649199e-01
-2.037424198351800442e-01
-3.962343034800142050e-03
-2.873378572985529900e-02
7.619110692758113146e-03
-1.683062495430931449e-02
-1.066979602910578251e-03
1.212300936458632350e-02
4.080333164893090725e-03
2.205891764606349170e-01
3.650356410071253777e-01
6.320524908369407058e-01
6.388083388446830213e-01
7.652392087038606405e-01
8.437357284128665924e-01
6.857775678508915007e-01
5.928042309824377298e-01
6.462076009484007955e-01
6.545719841960817575e-01
6.738744070753455162e-01
5.007960152579471469e-01
5.876569182146340609e-01
4.055707290535792708e-01
4.805284712347202003e-01
4.435321607161313295e-01
4.303421717486344278e-01
3.959195176139473915e-01
3.251439670566469431e-01
3.997800021898001432e-01
3.431595617439597845e-01
2.936166763538494706e-01
3.576363789034076035e-01
2.868608283461071551e-01
2.756010816665366292e-01
2.784964450984261930e-01
2.556552446912974119e-01
2.221977117005735636e-01
2.537250024033710361e-01
3.068066653213463724e-01
3.750085594947449863e-01
4.010668303817510605e-01
3.756519735907204449e-01
4.673384822672232985e-01
4.908230967703275383e-01
3.589232070953585207e-01
3.273959163925610483e-01
3.219268965767696500e-01
2.492211037315428257e-01
9.898391232127323747e-02
8.708075154572725296e-02
8.584231836721301079e-03
-3.870670421747490764e-02
-5.060986499302089214e-02
-9.725738695124164224e-02
-1.123776182066649199e-01
-2.796652831602841616e-01
-1.284629706060513854e-01
-8.696276141563430429e-02
-6.669521739240735769e-02
-1.406878384295850992e-01
-1.136644463986158371e-01
-1.458351511973887682e-01
-2.034207127871923149e-01
-1.352188186137937009e-01
-1.609553824528120458e-01
-5.607888480881229043e-02
-1.780058559961616993e-01
-1.796143912361003458e-01
-1.802578053320758045e-01
-2.294789836741983891e-01
-1.229939507902599871e-01
-2.307658118661493063e-01
-1.712500079884193838e-01
-2.822389395441859961e-01
-1.345754045178182423e-01
-3.269562192144803703e-01
-3.224523205426521599e-01
-2.169324088026769459e-01
-1.944129154435358942e-01
-2.204711863305419683e-01
-2.600411532330326736e-01
-2.182192369946278632e-01
-1.783275630441494286e-01
-2.108199748909100890e-01
-2.593977391370572150e-01
-2.526418911293148994e-01
-1.725368361803703010e-01
-2.047075409791432321e-01
-2.355914175859652460e-01
-2.085680255549959838e-01
-2.207928933785296977e-01
-2.371999528259038925e-01
-2.217580145224928856e-01
-1.689980586525052786e-01
-1.007961644791066647e-01
-2.642233448568731546e-01
-1.506607569172047079e-01
-1.696414727484807372e-01
-1.673895234125666320e-01
-1.561297767329961061e-01
-2.462077501695603132e-01
-2.088897326029837132e-01
-1.709283009404316545e-01
-2.848125959280878305e-01
-1.966648647794499993e-01
-1.538778273970820010e-01
-1.551646555890329182e-01
-1.184900521184317768e-01
-1.979516929714009166e-01
-1.104473759187385440e-01
-1.744670784682966769e-01
-1.612770895007997751e-01
-1.673895234125666320e-01
-1.278195565100759268e-01
-1.699631797964684665e-01
-1.751104925642721355e-01
-9.339690237538889050e-02
-1.146295675425790250e-01
-1.487305146292783320e-01
-1.635290388367138803e-01
-1.979516929714009166e-01
-1.239590719342231750e-01
-1.374707679497078061e-01
-2.198277722345665097e-01
-1.619205035967752337e-01
-1.258893142221495509e-01
-1.323234551819041371e-01
-1.802578053320758045e-01
-1.200985873583704233e-01
-7.988520635990425944e-02
-1.126993252546526492e-01
-1.792926841881126165e-01
-1.516258780611678958e-01
-2.526418911293148994e-01
-2.581109109451062977e-01
-2.127502171788364649e-01
-2.198277722345665097e-01
-1.371490609017200768e-01
-1.593468472128733993e-01
-1.931260872515849769e-01
-1.165598098305054009e-01
-1.564514837809838355e-01
-1.735019573243334889e-01
-1.339319904218427837e-01
-1.529127062531188130e-01
-1.101256688707508147e-01
-1.262110212701372802e-01
-1.020829926710575819e-01
-8.149374159984290600e-02
-1.603119683568365872e-01
-7.859837816795334220e-02
-1.760756137082353234e-01
-1.361839397577568889e-01
-6.508668215246871114e-02
-1.069085983908735216e-01
-4.867962270509451628e-02
-6.766033853637054563e-02
2.241763490019366145e-02
6.456125818658620119e-02
1.266507184482179582e-01
-2.056726621231064200e-01
-3.420280554564669728e-02
-2.583842229796573520e-02
-3.355939144967123866e-02
6.359613704262301326e-02
2.402617014013230801e-02
3.753786615561693907e-02
-5.768742004875093699e-02
-1.024046997190453112e-01
-8.278056979179382324e-02
1.469666574848815799e-02
-4.642767336918041110e-02
2.048739261226728559e-02
3.560762386769056320e-02
8.584231836721301079e-03
-3.962343034800142050e-03
5.688868404831737280e-03
5.104956217110157013e-02
-1.457867561839520931e-02
4.558054235531017184e-02
5.844882427481934428e-02
6.681320752250030637e-02
1.269724254962056875e-01
6.070077361073344946e-02
3.753786615561693907e-02
5.716199608286842704e-02
7.067369209835305810e-02
1.285809607361443341e-01
1.359802228398621082e-01
1.070265885209664702e-01
1.681509276386350393e-01
1.337282735039480031e-01
9.673196298535913229e-02
1.572128880070522428e-01
1.350151016958989203e-01
9.351489250548183918e-02
1.247204761602915823e-01
1.494919188553467393e-01
1.041312250890769064e-01
1.671858064946718514e-01
1.984397851629182696e-02
1.858448152779601514e-01
2.682018195628188550e-01
2.476125684916041791e-01
3.161361697129905224e-01
2.582289010751992464e-01
2.447172050597146153e-01
1.131390224327333272e-01
1.321197382640093565e-01
1.794106743182055652e-01
1.990348042454570532e-01
1.198948704404756427e-01
2.096511368290521204e-01
1.527089893352240324e-01
1.224685268243774772e-01
1.710462910705246031e-01
1.697594628785736859e-01
1.729765333584509790e-01
1.716897051665000618e-01
1.848796941339969635e-01
1.536741104791872203e-01
2.045038240612484515e-01
2.151201566448435187e-01
1.517438681912608445e-01
1.494919188553467393e-01
1.835928659420460463e-01
1.424143637996166945e-01
1.401624144637025893e-01
3.657274501165375113e-02
2.720623041386716068e-01
2.897561917779967189e-01
3.267525022965855896e-01
3.981714669498614967e-01
3.508805308956652880e-01
3.270742093445733190e-01
2.958686256897635758e-01
3.460549251758493483e-01
3.830512356944382191e-01
3.000508173136040568e-01
3.286827445845119655e-01
3.225703106727451086e-01
2.984422820736654103e-01
3.682527114870026708e-01
2.961903327377513051e-01
3.566712577594444156e-01
3.193532401928678155e-01
4.280902224127203226e-01
2.299186808522790670e-01
2.903996058739721775e-01
3.016593525535427034e-01
2.312055090442299843e-01
2.122247932129539549e-01
2.675584054668433964e-01
2.733491323306225240e-01
1.797323813661932945e-01
1.433794849435798824e-01
3.116322710411623120e-01
2.945817974978126585e-01
2.688452336587943137e-01
1.967828549095429480e-01
2.868608283461071551e-01
2.521164671634323895e-01
1.787672602222301066e-01
1.784455531742423773e-01
1.784455531742423773e-01
1.784455531742423773e-01
1.794106743182055652e-01
1.784455531742423773e-01
1.790889672702178359e-01
1.787672602222301066e-01
1.803757954621687531e-01
1.797323813661932945e-01
1.800540884141810238e-01
1.794106743182055652e-01
1.800540884141810238e-01
1.797323813661932945e-01
1.797323813661932945e-01
1.787672602222301066e-01
1.797323813661932945e-01
1.790889672702178359e-01
1.794106743182055652e-01
1.790889672702178359e-01
1.790889672702178359e-01
1.797323813661932945e-01
1.797323813661932945e-01
1.800540884141810238e-01
1.806975025101564825e-01
1.964611478615552187e-01
2.205891764606349170e-01
2.916864340659230947e-01
2.936166763538494706e-01
2.691669407067820430e-01
1.742633615504018962e-01
1.511004540952853858e-01
1.224685268243774772e-01
1.324414453119970858e-01
6.745662161847576499e-02
2.534032953553833067e-01
1.761936038383282721e-01
1.420926567516289651e-01
1.665423923986963928e-01
1.736199474544264376e-01
1.758718967903405428e-01
1.398407074157148600e-01
3.367738157976418734e-02
1.897052998538129032e-01
1.506676780991256237e-03
2.048739261226728559e-02
1.517438681912608445e-01
1.244471641257405281e-02
4.139835073146969080e-02
-2.776866458589211106e-02
-6.535999418701976538e-03
-8.760617551160976291e-02
2.820836176397278905e-02
1.727032213238999248e-02
-4.610596632119268179e-02
-1.217071225983090699e-01
1.182863352005369961e-01
-9.017983189551159739e-02
-1.709283009404316545e-01
3.110372519586235285e-02
3.689445205964148045e-02
-2.712525048991665244e-02
-7.538130768807604909e-02
-1.940428133821114898e-02
-1.249241930781863630e-01
-5.640059185680001974e-02
1.506676780991256237e-03
-1.262110212701372802e-01
-8.824958960758522153e-02
-5.993936938466504216e-02
-1.654592811246402562e-01
-9.114495303947478533e-02
-1.487305146292783320e-01
-1.796143912361003458e-01
-1.323234551819041371e-01
-1.036915279109962285e-01
-1.689980586525052786e-01
-5.640059185680001974e-02
-6.444326805649325252e-02
-9.050153894349932671e-02
-1.175249309744685888e-01
-1.168815168784931302e-01
-2.053509550751186907e-01
-1.226722437422722578e-01
-9.983104333514347672e-02
-8.921471075154840946e-02
-1.281412635580636561e-01
-1.188117591664195061e-01
-1.422963736695237458e-01
-1.442266159574501216e-01
-2.024555916432291269e-01
-1.181683450704440475e-01
-7.924179226392880082e-02
-1.236373648862354457e-01
-2.117850960348732769e-01
-2.809037163387984037e-02
-1.689980586525052786e-01
-1.400444243336096406e-01
-1.760756137082353234e-01
-1.294280917500145733e-01
-2.310875189141370356e-01
-1.538778273970820010e-01
-2.063160762190818787e-01
-2.249750850023701787e-01
-2.137153383227996528e-01
-1.213854155503213406e-01
-1.065868913428857923e-01
-1.416529595735482872e-01
-6.605180329643189907e-02
-1.747887855162844062e-01
-1.728585432283580303e-01
-2.130719242268241942e-01
-2.224014286184683442e-01
-8.535422617569565773e-02
-1.107690829667262733e-01
-1.911958449636586010e-01
-1.332885763258673251e-01
-6.857706466689705849e-03
-2.008470564032904804e-01
-2.565023757051676512e-01
-1.377924749976955354e-01
-7.827667111996561289e-02
-1.062651842948980629e-01
-6.535999418701976538e-03
-5.993936938466504216e-02
-9.109655802603811026e-03
-2.178975299466401339e-01
-1.722151291323825717e-01
-2.043858339311555028e-01
-2.835257677361369133e-01
-1.712500079884193838e-01
-1.445483230054378510e-01
-2.452426290255971253e-01
-1.815446335240267217e-01
-2.269053272902965546e-01
-1.445483230054378510e-01
-1.696414727484807372e-01
-2.166107017546892166e-01
-2.056726621231064200e-01
-1.159163957345299423e-01
-2.449209219776093960e-01
-1.686763516045175493e-01
-2.992894130875356495e-01
-8.342398388776928186e-02
-8.181544864783063531e-02
-3.002545342314988375e-01
-2.053509550751186907e-01
-4.051310318754985929e-01
-8.149374159984290600e-02
-2.059943691710941494e-01
-1.689980586525052786e-01
-1.911958449636586010e-01
-2.220797215704806149e-01
-1.184900521184317768e-01
-1.989168141153641045e-01
-7.184253016021102667e-02
-2.352697105379775167e-01
-1.432614948134869337e-01
-7.184253016021102667e-02
-1.027264067670330405e-01
-1.670678163645789027e-01
-1.146295675425790250e-01
-1.236373648862354457e-01
3.436919068917632103e-03
-4.932303680106997490e-02
-1.892656026757322252e-01
-5.704400595277547836e-02
-1.973082788754254580e-01
-2.082463185070082545e-01
-1.262110212701372802e-01
-1.394010102376341820e-01
-1.278195565100759268e-01
-4.128036060137674212e-02
1.598349394043907523e-02
-1.439049089094623923e-01
-1.493739287252537906e-01
-4.803620860911905766e-02
-3.806329012149944901e-02
-4.288889584131538868e-02
-1.014395785750821233e-01
-6.701692444039508700e-02
-1.278195565100759268e-01
-7.538130768807604909e-02
-6.026107643265277147e-02
-7.280765130417421460e-02
-6.508668215246871114e-02
-7.501120562665164471e-03
-2.420255585457198322e-01
-8.599764027167111635e-02
-2.018121775472536683e-01
-2.121068030828610063e-01
-1.773624419001862407e-01
-1.747887855162844062e-01
-1.693197657004930079e-01
-1.168815168784931302e-01
-1.493739287252537906e-01
4.365030006738379598e-02
-8.599764027167111635e-02
-1.018584589473903179e-04
4.590224940329790115e-02
-3.677646192954853177e-02
8.096831763396039605e-02
7.517759077018126845e-02
1.060614673770032823e-01
7.421246962621808052e-02
8.482880220981314778e-02
5.362321855500340462e-02
7.485588372219353914e-02
1.089568308088928461e-01
1.015575687051750720e-01
-3.548963373759761453e-02
1.253638902562670410e-01
8.547221630578860641e-02
1.642904430627822876e-01
1.034878109931014478e-01
1.768370179343037307e-01
1.034878109931014478e-01
7.678612601011991501e-02
1.691160487825982273e-01
1.813409166061319411e-01
1.691160487825982273e-01
1.694377558305859566e-01
9.576684184139594436e-02
1.350151016958989203e-01
1.482050906633958220e-01
1.414492426556535065e-01
1.276158395921811461e-01
1.124956083367578685e-01
2.469691543956287205e-01
1.681509276386350393e-01
2.334574583801440895e-01
1.173212140565738082e-01
1.272941325441934168e-01
2.012867535813711584e-01
3.496420977171510458e-02
2.849305860581807792e-01
1.482050906633958220e-01
1.562477668630890548e-01
1.141041435766965151e-01
6.745662161847576499e-02
1.520655752392485738e-01
1.285809607361443341e-01
1.980696831014938653e-01
1.716897051665000618e-01
1.523872822872363031e-01
1.527089893352240324e-01
1.990348042454570532e-01
2.154418636928312480e-01
2.714188900426961482e-01
1.909921280457638204e-01
2.308838019962422550e-01
2.286318526603281498e-01
1.761936038383282721e-01
1.546392316231504083e-01
1.678292205906473100e-01
2.443954980117268860e-01
1.446663131355307996e-01
2.273450244683772326e-01
2.273450244683772326e-01
1.243987691123038530e-01
2.514730530674569309e-01
2.038604099652729928e-01
2.032169958692975342e-01
1.868099364219233394e-01
1.826277447980828583e-01
1.871316434699110687e-01
2.032169958692975342e-01
1.234336479683406651e-01
1.340499805519357324e-01
1.340499805519357324e-01
1.842362800380215049e-01
8.000319648999720812e-02
1.913138350937515497e-01
2.350659936200827360e-01
2.408567204838618636e-01
1.282592536881566048e-01
3.444463899359107018e-01
2.521164671634323895e-01
3.097020287532359362e-01
1.646121501107700169e-01
1.858448152779601514e-01
2.508296389714814723e-01
1.649338571587577462e-01
2.199457623646594584e-01
2.688452336587943137e-01
1.687943417346104980e-01
1.752284826943650842e-01
2.115813791169784963e-01
1.742633615504018962e-01
2.839654649142175913e-01
2.279884385643526912e-01
1.864882293739356101e-01
2.231628328445367515e-01
2.498645178275182843e-01
2.238062469405122101e-01
2.704537688987329602e-01
2.308838019962422550e-01
1.128173153847455978e-01
1.861665223259478807e-01
2.891127776820212603e-01
1.565694739110767841e-01
2.086860156850889325e-01
2.299186808522790670e-01
2.009650465333834291e-01
2.112596720689907670e-01
1.720114122144877911e-01
2.102945509250275791e-01
2.765662028104998171e-01
1.999999253894202411e-01
2.144767425488680601e-01
2.244496610364876688e-01
2.794615662423893809e-01
4.084660924854688346e-01
4.551136144436895847e-01
3.019810596015304327e-01
3.508805308956652880e-01
3.595666211913339794e-01
3.328649362083524466e-01
1.430577778955921531e-01
2.678801125148311257e-01
2.524381742114201188e-01
2.685235266108065844e-01
2.250930751324631274e-01
2.527598812594078481e-01
1.771587249822914600e-01
2.250930751324631274e-01
1.929223703336901963e-01
2.009650465333834291e-01
1.980696831014938653e-01
1.063831744249910116e-01
1.996782183414325118e-01
-2.675514842849224806e-03
3.077717864653095603e-01
1.581780091510154307e-01
5.040614807512611151e-02
9.254977136151865125e-02
6.906515685841441154e-02
9.994903346523642540e-02
1.373154460452497005e-02
4.139835073146969080e-02
1.440228990395553410e-01
3.436919068917632103e-03
-1.940428133821114898e-02
-1.039648399455472827e-02
6.975696596782654524e-03
1.566178689245134592e-02
2.756494766799733043e-02
2.177422080421820283e-02
-9.950933628715574741e-02
-1.184900521184317768e-01
-8.599764027167111635e-02
-1.332885763258673251e-01
-1.603119683568365872e-01
-9.661397285526618361e-02
-1.159163957345299423e-01
-1.628856247407384217e-01
-1.458351511973887682e-01
-1.358622327097691596e-01
-1.188117591664195061e-01
-2.346262964420020580e-01
-1.509824639651924372e-01
-1.049783561029471457e-01
-2.362348316819407046e-01
-2.439558008336462080e-01
-1.316800410859286785e-01
-2.938203932717442513e-01
-3.317818249342963099e-01
-3.057235540472902358e-01
-1.725368361803703010e-01
-2.169324088026769459e-01
-1.940912083955481648e-01
-2.352697105379775167e-01
-2.104982678429223597e-01
-1.850834110518917441e-01
-2.262619131943210959e-01
-2.130719242268241942e-01
-5.032516815117560327e-01
-4.450227058259770274e-01
-4.617514723213389516e-01
-4.373017366742715240e-01
-3.684564284048974514e-01
-4.141388292191550136e-01
-3.153747654869221151e-01
-3.224523205426521599e-01
-3.752122764126397669e-01
-5.328487299266271293e-01
-3.263128051185049117e-01
-2.542504263692535460e-01
-3.388593799900263548e-01
-3.230957346386276186e-01
-3.121576950070448220e-01
-2.195060651865787804e-01
-2.246533779543824494e-01
-1.940912083955481648e-01
-2.182192369946278632e-01
-2.400953162577934563e-01
-2.497465276974253356e-01
-1.059434772469103336e-01
-1.078737195348367095e-01
-1.558080696850083768e-01
-1.455134441494010389e-01
-9.822250809520483017e-02
-2.249750850023701787e-01
-1.741453714203089476e-01
-8.020691340789198875e-02
-1.821880476200021803e-01
-2.027772986912168562e-01
-2.944638073677197099e-01
-3.253476839745417237e-01
-3.903325076680630445e-01
-4.424490494420751929e-01
-4.179993137950077653e-01
-3.076537963352166116e-01
-3.337120672222226858e-01
-2.745179703924804926e-01
-1.661026952206157148e-01
-2.639016378088854253e-01
-2.481379924574866891e-01
-3.070103822392411530e-01
-2.243316709063947201e-01
-2.722660210565663874e-01
-1.432614948134869337e-01
-1.300715058459900320e-01
-1.326451622298918664e-01
-1.718934220843948424e-01
-1.612770895007997751e-01
-2.404170233057811856e-01
-2.140370453707873821e-01
-2.066377832670696080e-01
-2.967157567036338151e-01
-1.956997436354868114e-01
-3.047584329033270478e-01
-3.388593799900263548e-01
-3.514059548615477979e-01
-2.828823536401614547e-01
-3.658827720209956169e-01
-3.198786641587503254e-01
-4.170341926510445774e-01
-3.707083777408115566e-01
-4.884531573043204844e-01
-5.222323973430320621e-01
-6.029808663879521191e-01
-6.274306020350195467e-01
-5.926862408523447812e-01
-6.300042584189213812e-01
-7.085007781279273331e-01
-6.300042584189213812e-01
-6.801905579050071537e-01
-6.380469346186146140e-01
-6.753649521851912141e-01
-6.174576835473999381e-01
-5.293099523987621069e-01
-3.900108006200753152e-01
-3.990185979637317359e-01
-3.710300847887992859e-01
-3.523710760055109859e-01
-2.745179703924804926e-01
-3.507625407655723393e-01
-3.922627499559894204e-01
-3.423981575178913772e-01
-3.793944680364802480e-01
-3.452935209497809410e-01
-3.459369350457563996e-01
-4.170341926510445774e-01
-2.909250298398546875e-01
-2.616496884729713202e-01
-1.908741379156708717e-01
-2.127502171788364649e-01
-1.921609661076217890e-01
-1.844399969559162855e-01
-1.155946886865422130e-01
-1.043349420069716871e-01
-3.645475488156080246e-02
-1.101256688707508147e-01
1.952227146830409765e-02
5.426663265097886324e-02
9.383659955346956849e-02
1.794106743182055652e-01
3.804775793105363846e-01
5.818661913508549333e-01
8.060960037983022630e-01
1.042872391117271036e+00
9.235190763138234615e-01
9.209454199299216270e-01
9.289880961296148598e-01
8.530652328045107424e-01
9.267361467937007546e-01
8.878095939871855080e-01
9.029298252426087856e-01
8.282937901094555855e-01
8.993910477147437632e-01
7.945145500707440078e-01
7.427197153447195888e-01
8.299023253493942320e-01
7.543011690722778440e-01
7.041148695861920714e-01
7.147312021697871387e-01
6.047073917579837143e-01
6.832039114669896662e-01
7.543011690722778440e-01
5.648157178075052798e-01
6.622929533477872610e-01
6.555371053400449455e-01
6.722658718354068696e-01
5.046564998337998986e-01
4.216560814529657364e-01
3.006942314095795155e-01
3.386556630721315742e-01
2.910430199699476361e-01
1.855231082299724221e-01
2.630545067950151861e-01
2.778530310024507344e-01
2.730274252826347947e-01
3.344734714482910931e-01
3.125973921851255000e-01
2.514730530674569309e-01
1.829494518460705876e-01
1.485267977113835514e-01
1.575345950550399721e-01
2.128682073089294136e-01
3.232137247687205672e-01
2.727057182346470654e-01
2.421435486758127809e-01
1.845579870860092342e-01
1.552826457191258669e-01
1.369453439838252962e-01
1.800540884141810238e-01
1.765153108863160014e-01
9.801879117731004953e-02
1.395190003677271307e-01
1.658989783027209342e-01
1.289026677841320634e-01
1.475616765674203634e-01
1.083134167129173875e-01
1.221468197763897479e-01
1.884184716618619859e-01
2.471797924954444170e-03
6.456125818658620119e-02
1.520655752392485738e-01
1.115304871927946806e-01
1.301894959760829806e-01
2.119030861649662256e-01
1.041312250890769064e-01
1.272941325441934168e-01
1.372670510318130255e-01
7.517759077018126845e-02
4.590224940329790115e-02
1.279375466401688755e-01
1.900270069018006325e-01
2.739925464265979826e-01
1.816626236541196704e-01
1.842362800380215049e-01
2.894344847300089896e-01
2.418218416278250515e-01
7.646441896213218570e-02
2.878259494900703430e-01
8.708075154572725296e-02
1.147475576726719737e-01
1.295460818801075220e-01
1.118521942407824099e-01
5.555346084292978048e-02
1.610733725829049945e-01
9.769708412932232022e-02
1.269724254962056875e-01
1.742633615504018962e-01
1.790889672702178359e-01
1.626819078228436410e-01
1.916355421417392790e-01
2.424652557238005102e-01
1.835928659420460463e-01
2.054689452052116394e-01
2.344225795241072774e-01
1.584997161990031600e-01
7.163881324231624603e-02
8.225514582591131330e-02
1.115304871927946806e-01
4.172005777945742011e-02
1.047746391850523651e-01
1.308329100720584393e-01
1.002707405132241547e-01
1.128173153847455978e-01
2.485776896355673671e-01
1.575345950550399721e-01
1.630036148708313704e-01
9.705367003334686160e-02
8.482880220981314778e-02
1.375887580798007548e-01
1.395190003677271307e-01
1.636470289668068290e-01
1.749067756463773549e-01
7.549929781816899776e-02
2.469691543956287205e-01
3.933458612300455570e-01
4.962921165861189365e-01
5.516257288400083780e-01
6.034205635660327971e-01
5.027262575458735228e-01
5.451915878802537918e-01
4.737726232269778848e-01
3.849814779823645949e-01
4.203692532610148191e-01
3.894853766541928053e-01
4.055707290535792708e-01
3.470200463198125362e-01
2.550118305953219533e-01
6.391784409061074257e-02
1.848796941339969635e-01
-4.128036060137674212e-02
-1.744670784682966769e-01
-3.620222874451428652e-01
-4.504917256417684257e-01
-4.768717035767622292e-01
-5.766008884529583156e-01
-4.215380913228727877e-01
-5.003563180798664689e-01
-4.488831904018297791e-01
-4.588561088894493878e-01
-5.724186968291178346e-01
-4.253985758987255394e-01
-4.418056353460997343e-01
-4.363366155303083360e-01
-4.244334547547623515e-01
-4.617514723213389516e-01
-4.141388292191550136e-01
-3.404679152299650013e-01
-4.086698094033636153e-01
-3.832549526123329997e-01
-4.205729701789095998e-01
-3.414330363739281893e-01
-3.237391487346030772e-01
-4.717243908089585602e-01
-5.196587409591302276e-01
-5.640543135814368725e-01
-4.340846661943942308e-01
-5.225541043910197914e-01
-4.591778159374371171e-01
-4.353714943863451481e-01
-4.015922543476335704e-01
-3.961232345318421721e-01
-3.723169129807502031e-01
-3.562315605813637376e-01
-4.167124856030568480e-01
-4.038442036835476756e-01
-3.060452610952779651e-01
-3.703866706928238273e-01
-3.018630694714374840e-01
-2.526418911293148994e-01
-2.526418911293148994e-01
-2.658318800968118012e-01
-1.506607569172047079e-01
1.636470289668068290e-01
3.180664120009168983e-01
4.596175131155177951e-01
6.182190877734683454e-01
8.196076998137868941e-01
6.584324687719345093e-01
8.009486910304985940e-01
6.114632397657260299e-01
7.259909488493576646e-01
6.410602881805971265e-01
5.657808389514684677e-01
5.400442751124501228e-01
3.618185705272480845e-01
3.679310044390149415e-01
4.573655637796036899e-01
3.682527114870026708e-01
4.596175131155177951e-01
3.862683061743155122e-01
4.081443854374811053e-01
3.891636696062050760e-01
3.364037137362174690e-01
2.154418636928312480e-01
2.817135155783034861e-01
2.881476565380580723e-01
2.138333284528926015e-01
1.356585157918743789e-01
9.351489250548183918e-02
1.272941325441934168e-01
7.807295420207083225e-02
4.011152253951877356e-02
7.775124715408310294e-02
-4.674938041716814041e-02
-4.835791565710678697e-02
-4.160206764936447144e-02
-8.857129665557295084e-02
-1.223505366942845285e-01
-1.094822547747753561e-01
-1.197768803103826940e-01
-1.966648647794499993e-01
-1.220288296462967992e-01
-1.004744574311189353e-01
-1.818663405720144510e-01
-1.709283009404316545e-01
-1.985951070673763752e-01
-2.191843581385910511e-01
-1.564514837809838355e-01
-1.162381027825176716e-01
-1.757539066602475941e-01
-3.961232345318421721e-01
-6.402988839545287192e-01
-7.001363948802463710e-01
-8.021175290923565626e-01
-8.754667360335588455e-01
-8.201331237796694040e-01
-7.792763286852277815e-01
-8.233501942595466971e-01
-6.708610535133630037e-01
-7.638343903818167746e-01
-6.451244896743446589e-01
-6.843727495288476348e-01
-7.657646326697431505e-01
-6.399771769065409899e-01
-6.255003597470931709e-01
-6.071630580117926002e-01
-5.045385097037069499e-01
-5.341355581185780466e-01
-5.244843466789461672e-01
-4.623948864173144102e-01
-4.958524194080382586e-01
-4.569258666015230119e-01
-4.331195450504310429e-01
-3.121576950070448220e-01
-3.485105914296582341e-01
-2.938203932717442513e-01
-2.783784549683332443e-01
-2.854560100240632892e-01
-2.336611752980388701e-01
-1.706065938924439251e-01
-2.030990057392045856e-01
-1.998819352593272924e-01
-1.471219793893396854e-01
-2.027772986912168562e-01
-1.580600190209224820e-01
-2.137153383227996528e-01
-1.548429485410451889e-01
-1.989168141153641045e-01
-1.278195565100759268e-01
-1.098039618227630854e-01
-1.117342041106894612e-01
-2.030990057392045856e-01
-3.318928938824683428e-03
-2.905549277784302831e-02
6.332282500807195902e-03
-1.136160513851791620e-02
-2.997221890836954117e-03
2.370446309214457870e-02
-1.168331218650564551e-02
2.977988679776899517e-01
3.688961255829781294e-01
6.310873696929775178e-01
6.388083388446830213e-01
7.642740875598974526e-01
8.430923143168911338e-01
6.851341537549160421e-01
5.937693521264009178e-01
6.471727220923639834e-01
6.545719841960817575e-01
6.735527000273577869e-01
5.007960152579471469e-01
5.879786252626217902e-01
4.058924361015670002e-01
4.798850571387447417e-01
4.425670395721681416e-01
4.300204647006466985e-01
3.968846387579105794e-01
3.245005529606714845e-01
3.994582951418124139e-01
3.438029758399352431e-01
2.936166763538494706e-01
3.589232070953585207e-01
2.871825353940948844e-01
2.752793746185488999e-01
2.797832732903771102e-01
2.556552446912974119e-01
2.218760046525858343e-01
2.540467094513587654e-01
3.061632512253709137e-01
3.756519735907204449e-01
4.017102444777265191e-01
3.740434383507817984e-01
4.666950681712478399e-01
4.898579756263643503e-01
3.582797929993830621e-01
3.264307952485978603e-01
3.138842203770764172e-01
2.051472381572239101e-01
1.118521942407824099e-01
5.844882427481934428e-02
3.758626116905361414e-03
-4.610596632119268179e-02
-5.028815794503316283e-02
-9.790080104721710086e-02
-1.133427393506281078e-01
-2.790218690643087029e-01
-1.291063847020268440e-01
-8.728446846362203360e-02
-6.637351034441962838e-02
-1.406878384295850992e-01
-1.149512745905667543e-01
-1.461568582453764975e-01
-2.043858339311555028e-01
-1.352188186137937009e-01
-1.622422106447629631e-01
-5.704400595277547836e-02
-1.770407348521985114e-01
-1.802578053320758045e-01
-1.802578053320758045e-01
-2.291572766262106597e-01
-1.242807789822109044e-01
-2.307658118661493063e-01
-1.715717150364071131e-01
-2.819172324961982667e-01
-1.355405256617814302e-01
-3.275996333104558289e-01
-3.221306134946644306e-01
-2.166107017546892166e-01
-1.944129154435358942e-01
-2.198277722345665097e-01
-2.597194461850449443e-01
-2.185409440426155925e-01
-1.780058559961616993e-01
-2.098548537469469011e-01
-2.590760320890694857e-01
-2.516767699853517115e-01
-1.731802502763457596e-01
-2.047075409791432321e-01
-2.317309330101124942e-01
-2.047075409791432321e-01
-2.423472655937075615e-01
-2.182192369946278632e-01
-2.307658118661493063e-01
-1.628856247407384217e-01
-9.950933628715574741e-02
-2.645450519048608840e-01
-1.509824639651924372e-01
-1.689980586525052786e-01
-1.667461093165911734e-01
-1.561297767329961061e-01
-2.462077501695603132e-01
-2.085680255549959838e-01
-1.722151291323825717e-01
-2.854560100240632892e-01
-1.973082788754254580e-01
-1.554863626370206475e-01
-1.558080696850083768e-01
-1.184900521184317768e-01
-1.989168141153641045e-01
-1.107690829667262733e-01
-1.757539066602475941e-01
-1.619205035967752337e-01
-1.677112304605543613e-01
-1.284629706060513854e-01
-1.702848868444561958e-01
-1.757539066602475941e-01
-9.339690237538889050e-02
-1.146295675425790250e-01
-1.480871005333028734e-01
-1.648158670286647975e-01
-1.982734000193886459e-01
-1.246024860301986337e-01
-1.377924749976955354e-01
-2.195060651865787804e-01
-1.619205035967752337e-01
-1.271761424141004682e-01
-1.329668692778795958e-01
-1.809012194280512631e-01
-1.207420014543458819e-01
-8.406739798374474049e-02
-1.368273538537323475e-01
-1.529127062531188130e-01
-1.895873097237199545e-01
-2.571457898011431098e-01
-2.571457898011431098e-01
-2.117850960348732769e-01
-2.188626510906033218e-01
-1.377924749976955354e-01
-1.590251401648856699e-01
-1.924826731556095183e-01
-1.168815168784931302e-01
-1.561297767329961061e-01
-1.728585432283580303e-01
-1.336102833738550544e-01
-1.519475851091556251e-01
-1.098039618227630854e-01
-1.255676071741618216e-01
-1.024046997190453112e-01
-8.181544864783063531e-02
-1.609553824528120458e-01
-7.859837816795334220e-02
-1.757539066602475941e-01
-1.352188186137937009e-01
-6.476497510448098183e-02
-1.065868913428857923e-01
-4.900132975308224559e-02
-6.766033853637054563e-02
2.177422080421820283e-02
6.423955113859847188e-02
1.269724254962056875e-01
-2.053509550751186907e-01
-3.388109849765896797e-02
-2.648183639394119382e-02
-3.388109849765896797e-02
6.359613704262301326e-02
2.338275604415684938e-02
3.785957320360466838e-02
-5.800912709673866630e-02
-1.017612856230698526e-01
-8.245886274380609393e-02
1.501837279647588730e-02
-3.613304783357307315e-02
2.820836176397278905e-02
2.177422080421820283e-02
1.340983755653724074e-02
-1.297014037845656276e-02
8.905938884709030390e-03
5.137126921908929944e-02
-1.618721085833385587e-02
4.525883530732244253e-02
5.844882427481934428e-02
6.649150047451257706e-02
1.272941325441934168e-01
6.102248065872117877e-02
3.785957320360466838e-02
5.748370313085615635e-02
7.035198505036532879e-02
1.285809607361443341e-01
1.363019298878498375e-01
1.070265885209664702e-01
1.675075135426595807e-01
1.330848594079725444e-01
9.641025593737140298e-02
1.562477668630890548e-01
1.350151016958989203e-01
9.415830660145729780e-02
1.247204761602915823e-01
1.485267977113835514e-01
1.034878109931014478e-01
1.671858064946718514e-01
1.984397851629182696e-02
1.861665223259478807e-01
2.688452336587943137e-01
2.472908614436164498e-01
3.158144626650027931e-01
2.575854869792237878e-01
2.443954980117268860e-01
1.134607294807210565e-01
1.308329100720584393e-01
1.784455531742423773e-01
1.999999253894202411e-01
1.202165774884633720e-01
2.083643086371012032e-01
1.427360708476044238e-01
1.317980312160216272e-01
1.816626236541196704e-01
1.559260598151013255e-01
1.819843307021073997e-01
1.716897051665000618e-01
1.845579870860092342e-01
1.527089893352240324e-01
2.038604099652729928e-01
2.138333284528926015e-01
1.504570399993099272e-01
1.478833836154080927e-01
1.819843307021073997e-01
1.420926567516289651e-01
1.404841215116903186e-01
3.721615910762920976e-02
2.704537688987329602e-01
2.894344847300089896e-01
3.257873811526224017e-01
3.972063458058983088e-01
3.505588238476775587e-01
3.270742093445733190e-01
2.955469186417758465e-01
3.457332181278616190e-01
3.824078215984627604e-01
2.990856961696408689e-01
3.280393304885365069e-01
3.228920177207328379e-01
2.984422820736654103e-01
3.669658832950517535e-01
2.955469186417758465e-01
3.566712577594444156e-01
3.196749472408555448e-01
4.277685153647325933e-01
2.292752667563036084e-01
2.907213129219599068e-01
3.019810596015304327e-01
2.305620949482545257e-01
2.122247932129539549e-01
2.685235266108065844e-01
2.743142534745857120e-01
1.739416545024141669e-01
1.884184716618619859e-01
3.084152005612850189e-01
2.871825353940948844e-01
2.649847490829415619e-01
1.839145729900337756e-01
2.868608283461071551e-01
2.530815883073955774e-01
1.784455531742423773e-01
1.787672602222301066e-01
1.790889672702178359e-01
1.784455531742423773e-01
1.787672602222301066e-01
1.790889672702178359e-01
1.797323813661932945e-01
1.800540884141810238e-01
1.794106743182055652e-01
1.806975025101564825e-01
1.800540884141810238e-01
1.787672602222301066e-01
1.797323813661932945e-01
1.797323813661932945e-01
1.794106743182055652e-01
1.794106743182055652e-01
1.787672602222301066e-01
1.787672602222301066e-01
1.797323813661932945e-01
1.794106743182055652e-01
1.794106743182055652e-01
1.794106743182055652e-01
1.800540884141810238e-01
1.800540884141810238e-01
1.794106743182055652e-01
1.964611478615552187e-01
2.199457623646594584e-01
2.907213129219599068e-01
2.939383834018371999e-01
2.694886477547697723e-01
1.745850685983896255e-01
1.501353329513221979e-01
1.218251127284020185e-01
1.321197382640093565e-01
1.022009828011505306e-01
2.411784275318495929e-01
1.449880201835185289e-01
1.636470289668068290e-01
1.604299584869295359e-01
1.749067756463773549e-01
1.752284826943650842e-01
1.385538792237639427e-01
3.335567453177645802e-02
1.884184716618619859e-01
1.506676780991256237e-03
1.952227146830409765e-02
1.511004540952853858e-01
1.051447412464767694e-02
4.043322958750650287e-02
-2.905549277784302831e-02
-7.501120562665164471e-03
-8.921471075154840946e-02
2.659982652403414249e-02
1.598349394043907523e-02
-4.739279451314359903e-02
-1.233156578382477164e-01
1.166777999605983496e-01
-9.178836713545024395e-02
-1.731802502763457596e-01
2.981689700391143560e-02
3.560762386769056320e-02
-2.841207868186756968e-02
-7.570301473606377840e-02
-2.165623067412525415e-02
-1.268544353661127388e-01
-5.833083414472639561e-02
-4.235655069351196289e-04
-1.265327283181250095e-01
-8.953641779953613877e-02
-6.154790462460368872e-02
-1.670678163645789027e-01
-9.211007418343797326e-02
-1.493739287252537906e-01
-1.815446335240267217e-01
-1.339319904218427837e-01
-1.094822547747753561e-01
-1.426180807175114751e-01
-5.093157204100862145e-02
-8.567593322368338704e-02
-8.213715569581836462e-02
-1.297497987980023026e-01
-1.188117591664195061e-01
-2.066377832670696080e-01
-1.249241930781863630e-01
-1.007961644791066647e-01
-9.114495303947478533e-02
-1.303932128939777613e-01
-1.194551732623949647e-01
-1.435832018614746630e-01
-1.458351511973887682e-01
-2.030990057392045856e-01
-1.191334662144072354e-01
-7.988520635990425944e-02
-1.239590719342231750e-01
-2.114633889868855476e-01
-2.969890687381848693e-02
-1.702848868444561958e-01
-1.410095454775728285e-01
-1.776841489481739700e-01
-1.300715058459900320e-01
-2.307658118661493063e-01
-1.541995344450697303e-01
-2.079246114590205252e-01
-2.259402061463333666e-01
-2.150021665147505701e-01
-1.223505366942845285e-01
-1.069085983908735216e-01
-1.439049089094623923e-01
-6.733863148838281631e-02
-1.751104925642721355e-01
-1.747887855162844062e-01
-2.146804594667628407e-01
-2.233665497624315321e-01
-8.599764027167111635e-02
-1.130210323026403785e-01
-1.918392590596340597e-01
-1.352188186137937009e-01
-3.516792668960988522e-02
-2.256184990983456373e-01
-2.288355695782229304e-01
-1.181683450704440475e-01
-7.023399492027238011e-02
-1.130210323026403785e-01
-6.857706466689705849e-03
-5.993936938466504216e-02
-9.753069898579269648e-03
-2.172541158506646752e-01
-1.735019573243334889e-01
-2.053509550751186907e-01
-2.844908888801001012e-01
-1.712500079884193838e-01
-1.455134441494010389e-01
-2.452426290255971253e-01
-1.834748758119530976e-01
-2.272270343382842839e-01
-1.455134441494010389e-01
-1.689980586525052786e-01
-2.172541158506646752e-01
-2.056726621231064200e-01
-1.155946886865422130e-01
-2.449209219776093960e-01
-1.683546445565298200e-01
-3.008979483274742961e-01
-8.438910503173246980e-02
-8.181544864783063531e-02
-3.008979483274742961e-01
-2.059943691710941494e-01
-4.060961530194617808e-01
-8.245886274380609393e-02
-2.063160762190818787e-01
-1.699631797964684665e-01
-1.908741379156708717e-01
-2.236882568104192615e-01
-1.207420014543458819e-01
-1.998819352593272924e-01
-7.248594425618648529e-02
-2.349480034899897873e-01
-1.432614948134869337e-01
-7.184253016021102667e-02
-1.197768803103826940e-01
-1.519475851091556251e-01
-1.139861534466035664e-01
-1.287846776540391147e-01
4.976273397915065289e-02
-5.704400595277547836e-02
-1.899090167717076838e-01
-5.800912709673866630e-02
-1.969865718274377286e-01
-2.076029044110327959e-01
-1.255676071741618216e-01
-1.394010102376341820e-01
-1.278195565100759268e-01
-4.095865355338901281e-02
1.727032213238999248e-02
-1.435832018614746630e-01
-1.487305146292783320e-01
-4.867962270509451628e-02
-3.935011831345036626e-02
-4.321060288930311799e-02
-1.017612856230698526e-01
-6.862545968033373356e-02
-1.284629706060513854e-01
-7.570301473606377840e-02
-6.026107643265277147e-02
-7.377277244813740253e-02
-6.540838920045644045e-02
-7.501120562665164471e-03
-2.417038514977321029e-01
-8.567593322368338704e-02
-2.014904704992659390e-01
-2.117850960348732769e-01
-1.776841489481739700e-01
-1.754321996122598648e-01
-1.696414727484807372e-01
-1.168815168784931302e-01
-1.493739287252537906e-01
4.268517892342060804e-02
-8.728446846362203360e-02
2.198485890403389931e-04
4.558054235531017184e-02
-2.583842229796573520e-02
7.710783305810764432e-02
8.868928678566589952e-02
9.994903346523642540e-02
6.777832866646349430e-02
9.029782202560454607e-02
5.394492560299113393e-02
7.453417667420580983e-02
1.092785378568805754e-01
1.015575687051750720e-01
-3.581134078558534384e-02
1.253638902562670410e-01
8.482880220981314778e-02
1.646121501107700169e-01
1.031661039451137185e-01
1.768370179343037307e-01
1.022009828011505306e-01
7.678612601011991501e-02
1.687943417346104980e-01
1.823060377500951290e-01
1.694377558305859566e-01
1.694377558305859566e-01
9.608854888938367367e-02
1.363019298878498375e-01
1.491702118073590100e-01
1.417709497036412358e-01
1.279375466401688755e-01
1.134607294807210565e-01
2.460040332516655326e-01
1.675075135426595807e-01
2.324923372361809015e-01
1.166777999605983496e-01
1.272941325441934168e-01
2.012867535813711584e-01
3.528591681970283389e-02
2.858957072021439672e-01
1.488485047593712807e-01
1.568911809590645134e-01
1.150692647206597030e-01
6.810003571445122361e-02
1.514221611432731152e-01
1.295460818801075220e-01
1.942091985256411135e-01
1.668640994466841221e-01
1.511004540952853858e-01
1.539958175271749496e-01
2.141550355008803308e-01
2.160852777888067067e-01
2.714188900426961482e-01
1.922789562377147377e-01
2.318489231402054429e-01
2.283101456123404205e-01
1.758718967903405428e-01
1.556043527671135962e-01
1.691160487825982273e-01
2.447172050597146153e-01
1.446663131355307996e-01
2.276667315163649619e-01
2.279884385643526912e-01
1.240770620643161237e-01
2.514730530674569309e-01
2.032169958692975342e-01
2.041821170132607222e-01
1.877750575658865273e-01
1.819843307021073997e-01
1.874533505178987980e-01
2.028952888213098049e-01
1.234336479683406651e-01
1.334065664559602737e-01
1.340499805519357324e-01
1.845579870860092342e-01
7.968148944200947881e-02
1.906704209977760911e-01
2.350659936200827360e-01
2.411784275318495929e-01
1.266507184482179582e-01
3.441246828879229724e-01
2.514730530674569309e-01
3.093803217052482069e-01
1.642904430627822876e-01
1.858448152779601514e-01
2.508296389714814723e-01
1.642904430627822876e-01
2.225194187485612929e-01
2.466474473476409912e-01
1.552826457191258669e-01
2.090077227330766618e-01
1.932440773816779256e-01
1.716897051665000618e-01
2.897561917779967189e-01
2.283101456123404205e-01
1.861665223259478807e-01
2.228411257965490222e-01
2.498645178275182843e-01
2.228411257965490222e-01
2.701320618507452309e-01
2.318489231402054429e-01
1.128173153847455978e-01
1.861665223259478807e-01
2.891127776820212603e-01
1.559260598151013255e-01
2.093294297810643911e-01
2.305620949482545257e-01
2.016084606293588877e-01
2.128682073089294136e-01
1.739416545024141669e-01
2.106162579730153084e-01
2.765662028104998171e-01
1.996782183414325118e-01
2.131899143569171429e-01
2.247713680844753981e-01
2.794615662423893809e-01
4.087877995334565639e-01
4.557570285396650434e-01
3.029461807454936206e-01
3.524890661356039345e-01
3.608534493832848966e-01
3.331866432563401759e-01
1.440228990395553410e-01
2.688452336587943137e-01
2.530815883073955774e-01
2.685235266108065844e-01
2.244496610364876688e-01
2.524381742114201188e-01
1.771587249822914600e-01
2.205891764606349170e-01
1.922789562377147377e-01
2.115813791169784963e-01
1.794106743182055652e-01
8.418538811383768916e-02
2.218760046525858343e-01
-3.318928938824683428e-03
3.061632512253709137e-01
1.568911809590645134e-01
4.944102693116292357e-02
9.254977136151865125e-02
6.842174276243895292e-02
9.994903346523642540e-02
1.373154460452497005e-02
4.043322958750650287e-02
1.440228990395553410e-01
4.723747260868549347e-03
-2.036940248217433691e-02
-1.297014037845656276e-02
5.688868404831737280e-03
1.405325165251269937e-02
2.627811947604641318e-02
2.113080670824274421e-02
-9.983104333514347672e-02
-1.175249309744685888e-01
-8.535422617569565773e-02
-1.348971115658059716e-01
-1.603119683568365872e-01
-9.693567990325391293e-02
-1.149512745905667543e-01
-1.632073317887261510e-01
-1.461568582453764975e-01
-1.361839397577568889e-01
-1.200985873583704233e-01
-2.355914175859652460e-01
-1.513041710131801665e-01
-1.043349420069716871e-01
-2.365565387299284339e-01
-2.445992149296216667e-01
-1.310366269899532199e-01
-2.941421003197319806e-01
-3.314601178863085806e-01
-2.774133338243700564e-01
-1.805795123800635338e-01
-2.294789836741983891e-01
-1.677112304605543613e-01
-2.661535871447995305e-01
-2.053509550751186907e-01
-1.841182899079285562e-01
-2.259402061463333666e-01
-2.130719242268241942e-01
-5.035733885597437620e-01
-4.453444128739647567e-01
-4.611080582253634930e-01
-4.369800296262837946e-01
-3.690998425008729100e-01
-4.144605362671427429e-01
-3.140879372949711978e-01
-3.237391487346030772e-01
-3.755339834606274962e-01
-5.338138510705903172e-01
-3.250259769265539944e-01
-2.539287193212658167e-01
-3.388593799900263548e-01
-3.224523205426521599e-01
-3.121576950070448220e-01
-2.198277722345665097e-01
-2.252967920503579080e-01
-1.934477942995727062e-01
-2.185409440426155925e-01
-2.388084880658425391e-01
-2.500682347454130650e-01
-1.053000631509348750e-01
-1.075520124868489802e-01
-1.564514837809838355e-01
-1.461568582453764975e-01
-9.790080104721710086e-02
-2.246533779543824494e-01
-1.754321996122598648e-01
-7.924179226392880082e-02
-1.831531687639653683e-01
-2.034207127871923149e-01
-2.951072214636951685e-01
-3.311384108383208513e-01
-4.022356684436090291e-01
-4.530653820256702602e-01
-3.848634878522716463e-01
-2.954289285116828978e-01
-3.459369350457563996e-01
-2.751613844884559512e-01
-1.667461093165911734e-01
-2.648667589528486133e-01
-2.497465276974253356e-01
-3.076537963352166116e-01
-2.256184990983456373e-01
-2.732311422005295753e-01
-1.432614948134869337e-01
-1.307149199419654906e-01
-1.336102833738550544e-01
-1.722151291323825717e-01
-1.622422106447629631e-01
-2.417038514977321029e-01
-2.150021665147505701e-01
-2.072811973630450666e-01
-2.976808778475970030e-01
-1.969865718274377286e-01
-3.060452610952779651e-01
-3.395027940860018134e-01
-3.526927830534987152e-01
-2.844908888801001012e-01
-3.662044790689833462e-01
-3.208437853027135134e-01
-4.183210208429954946e-01
-3.700649636448360980e-01
-4.894182784482836723e-01
-5.231975184869952500e-01
-6.036242804839275777e-01
-6.271088949870318174e-01
-5.936513619963079691e-01
-6.309693795628845692e-01
-7.101093133678659797e-01
-6.316127936588600278e-01
-6.817990931449458003e-01
-6.396554698585532606e-01
-6.763300733291544020e-01
-6.074847650597803295e-01
-4.923136418801732361e-01
-3.861503160442225635e-01
-4.109217587392777205e-01
-3.533361971494741738e-01
-3.536579041974619031e-01
-2.745179703924804926e-01
-3.517276619095355272e-01
-3.929061640519648790e-01
-3.427198645658791065e-01
-3.806812962284311652e-01
-3.465803491417318583e-01
-3.465803491417318583e-01
-4.179993137950077653e-01
-2.912467368878424168e-01
-2.626148096169345081e-01
-1.918392590596340597e-01
-2.130719242268241942e-01
-1.928043802035972476e-01
-1.847617040039040148e-01
-1.159163957345299423e-01
-1.056217701989226043e-01
-3.645475488156080246e-02
-1.107690829667262733e-01
1.920056442031636834e-02
5.297980445902794600e-02
9.287147840950638056e-02
1.797323813661932945e-01
3.795124581665731966e-01
5.821878983988426626e-01
8.044874685583636165e-01
1.041585562925320119e+00
9.235190763138234615e-01
9.196585917379707098e-01
9.280229749856516719e-01
8.517784046125598252e-01
9.254493186017498374e-01
8.865227657952345908e-01
9.032515322905965149e-01
8.266852548695169389e-01
8.993910477147437632e-01
7.919408936868421733e-01
7.662043298478238285e-01
8.105999024701304734e-01
7.472236140165477991e-01
6.873861030908301473e-01
7.272777770413085818e-01
5.969864226062782109e-01
6.819170832750387490e-01
7.539794620242901146e-01
5.644940107595175505e-01
6.619712462997995317e-01
6.536068630521185696e-01
6.729092859313823283e-01
5.049782068817876279e-01
4.213343744049780071e-01
3.000508173136040568e-01
3.380122489761561155e-01
2.907213129219599068e-01
1.842362800380215049e-01
2.624110926990397274e-01
2.775313239544630051e-01
2.717405970906838775e-01
3.325432291603647172e-01
3.109888569451868534e-01
2.501862248755060136e-01
1.826277447980828583e-01
1.475616765674203634e-01
1.559260598151013255e-01
2.115813791169784963e-01
3.225703106727451086e-01
2.714188900426961482e-01
2.411784275318495929e-01
1.839145729900337756e-01
1.543175245751626790e-01
1.366236369358375669e-01
1.787672602222301066e-01
1.755501897423528135e-01
9.769708412932232022e-02
1.388755862717516720e-01
1.652555642067454755e-01
1.282592536881566048e-01
1.456314342794939876e-01
1.079917096649296582e-01
1.491702118073590100e-01
1.494919188553467393e-01
-3.967182536143809557e-02
1.227902338723652065e-01
1.520655752392485738e-01
1.096002449048683047e-01
1.292243748321197927e-01
2.106162579730153084e-01
1.018792757531628013e-01
1.260073043522424996e-01
1.366236369358375669e-01
7.324734848225489259e-02
4.493712825933471322e-02
1.253638902562670410e-01
1.887401787098497152e-01
2.727057182346470654e-01
1.806975025101564825e-01
1.835928659420460463e-01
2.887910706340335310e-01
2.408567204838618636e-01
7.549929781816899776e-02
2.868608283461071551e-01
8.675904449773952365e-02
1.131390224327333272e-01
1.289026677841320634e-01
1.112087801448069513e-01
5.587516789091750979e-02
1.610733725829049945e-01
9.769708412932232022e-02
1.263290114002302289e-01
1.739416545024141669e-01
1.787672602222301066e-01
1.623602007748559117e-01
1.916355421417392790e-01
2.418218416278250515e-01
1.835928659420460463e-01
2.051472381572239101e-01
2.344225795241072774e-01
1.581780091510154307e-01
7.228222733829170465e-02
8.193343877792358398e-02
9.544513479340821505e-02
5.844882427481934428e-02
1.060614673770032823e-01
1.398407074157148600e-01
8.386368106584995985e-02
1.157126788166351616e-01
2.479342755395919085e-01
1.572128880070522428e-01
1.630036148708313704e-01
9.641025593737140298e-02
8.450709516182541847e-02
1.366236369358375669e-01
1.388755862717516720e-01
1.636470289668068290e-01
1.742633615504018962e-01
7.421246962621808052e-02
2.460040332516655326e-01
3.927024471340700984e-01
4.959704095381312072e-01
5.513040217920206487e-01
6.027771494700573385e-01
5.017611364019103348e-01
5.448698808322660625e-01
4.734509161789901555e-01
3.833729427424259484e-01
4.197258391650393605e-01
3.894853766541928053e-01
4.055707290535792708e-01
3.479851674637757242e-01
2.562986587872728705e-01
6.391784409061074257e-02
1.858448152779601514e-01
-4.128036060137674212e-02
-1.747887855162844062e-01
-3.617005803971551359e-01
-4.511351397377438843e-01
-4.765499965287744999e-01
-5.766008884529583156e-01
-4.221815054188482463e-01
-5.013214392238296568e-01
-4.492048974498175085e-01
-4.688290273770689964e-01
-5.328487299266271293e-01
-4.340846661943942308e-01
-4.363366155303083360e-01
-4.395536860101856291e-01
-4.205729701789095998e-01
-4.623948864173144102e-01
-4.147822433151304722e-01
-3.411113293259404600e-01
-4.115651728352531791e-01
-3.835766596603207290e-01
-4.205729701789095998e-01
-3.420764504699036479e-01
-3.240608557825908065e-01
-4.723678049049340189e-01
-5.206238621030934155e-01
-5.643760206294246018e-01
-4.363366155303083360e-01
-5.228758114390075207e-01
-4.594995229854248464e-01
-4.363366155303083360e-01
-4.025573754915967584e-01
-3.970883556758053601e-01
-3.729603270767256618e-01
-3.575183887733146548e-01
-4.179993137950077653e-01
-4.048093248275108635e-01
-3.073320892872288823e-01
-3.713517918367870152e-01
-3.031498976633884013e-01
-2.539287193212658167e-01
-2.542504263692535460e-01
-2.674404153367504478e-01
-1.516258780611678958e-01
1.620384937268681824e-01
3.171012908569537103e-01
4.580089778755791485e-01
6.169322595815174282e-01
8.192859927657991648e-01
6.581107617239467800e-01
8.012703980784863234e-01
6.114632397657260299e-01
7.137660810258239508e-01
6.175756736774928868e-01
5.725366869592107832e-01
5.143077112734317780e-01
3.132408062811009586e-01
3.775822158786468208e-01
4.576872708275914192e-01
3.679310044390149415e-01
4.596175131155177951e-01
3.869117202702909708e-01
4.075009713415056467e-01
3.894853766541928053e-01
3.373688348801806569e-01
2.151201566448435187e-01
2.823569296742789447e-01
2.878259494900703430e-01
2.151201566448435187e-01
1.350151016958989203e-01
9.351489250548183918e-02
1.276158395921811461e-01
7.839466125005856156e-02
4.043322958750650287e-02
7.710783305810764432e-02
-4.578425927320495248e-02
-4.867962270509451628e-02
-4.063694650540128350e-02
-8.824958960758522153e-02
-1.223505366942845285e-01
-1.098039618227630854e-01
-1.204202944063581526e-01
-1.956997436354868114e-01
-1.220288296462967992e-01
-1.007961644791066647e-01
-1.828314617159776390e-01
-1.712500079884193838e-01
-1.989168141153641045e-01
-2.191843581385910511e-01
-1.567731908289715648e-01
-1.175249309744685888e-01
-1.760756137082353234e-01
-3.974100627237930894e-01
-6.428725403384305537e-01
-7.197605248074978590e-01
-8.272106788353994489e-01
-8.674240598338656127e-01
-8.040477713802829385e-01
-7.754158441093750298e-01
-8.268889717874117196e-01
-6.708610535133630037e-01
-7.628692692378535867e-01
-6.444810755783692002e-01
-6.850161636248230934e-01
-7.664080467657186091e-01
-6.402988839545287192e-01
-6.261437738430686295e-01
-6.074847650597803295e-01
-5.058253378956578672e-01
-5.347789722145535052e-01
-5.251277607749216259e-01
-4.614297652733512223e-01
-4.971392475999891758e-01
-4.578909877454861999e-01
-4.334412520984187722e-01
-3.121576950070448220e-01
-3.494757125736214221e-01
-2.941421003197319806e-01
-2.780567479203455150e-01
-2.873862523119896650e-01
-2.336611752980388701e-01
-1.709283009404316545e-01
-2.034207127871923149e-01
-2.014904704992659390e-01
-1.484088075812906027e-01
-2.043858339311555028e-01
-1.590251401648856699e-01
-2.150021665147505701e-01
-1.570948978769592941e-01
-1.989168141153641045e-01
-1.274978494620881975e-01
-1.081954265828244388e-01
-1.107690829667262733e-01
-2.027772986912168562e-01
-2.675514842849224806e-03
-2.583842229796573520e-02
-1.018584589473903179e-04
-7.501120562665164471e-03
-3.962343034800142050e-03
3.496420977171510458e-02
-2.583842229796573520e-02
2.971554538817144930e-01
3.676092973910272121e-01
6.317307837889529765e-01
6.378432177007198334e-01
7.645957946078851819e-01
8.434140213648788631e-01
6.844907396589405835e-01
5.928042309824377298e-01
6.465293079963885248e-01
6.542502771480940282e-01
6.738744070753455162e-01
5.001526011619716883e-01
5.883003323106095195e-01
4.049273149576038122e-01
4.798850571387447417e-01
4.419236254761926830e-01
4.290553435566835105e-01
3.943109823740087450e-01
3.245005529606714845e-01
3.975280528538860381e-01
3.425161476479843259e-01
2.920081411139108241e-01
3.566712577594444156e-01
2.849305860581807792e-01
2.743142534745857120e-01
2.772096169064752758e-01
2.546901235473342240e-01
2.209108835086226463e-01
2.517947601154446602e-01
3.051981300814077258e-01
3.737217313027940691e-01
3.994582951418124139e-01
3.734000242548063397e-01
4.650865329313091934e-01
4.885711474344134331e-01
3.563495507114566863e-01
3.241788459126837552e-01
2.971554538817144930e-01
1.591431302949786186e-01
1.234336479683406651e-01
2.853006881196051836e-02
-4.235655069351196289e-04
-4.739279451314359903e-02
-5.286181432893499732e-02
-9.918762923916801810e-02
-1.143078604945912957e-01
-2.809521113522350788e-01
-1.297497987980023026e-01
-8.824958960758522153e-02
-6.798204558435827494e-02
-1.413312525255605578e-01
-1.152729816385544837e-01
-1.477653934853151441e-01
-2.069594903150573373e-01
-1.368273538537323475e-01
-1.638507458847016096e-01
-5.833083414472639561e-02
-1.796143912361003458e-01
-1.802578053320758045e-01
-1.812229264760389924e-01
-2.314092259621247649e-01
-1.258893142221495509e-01
-2.336611752980388701e-01
-1.738236643723212183e-01
-2.848125959280878305e-01
-1.365056468057446182e-01
-3.292081685503944755e-01
-3.247042698785662651e-01
-2.188626510906033218e-01
-1.950563295395113528e-01
-2.217580145224928856e-01
-2.616496884729713202e-01
-2.195060651865787804e-01
-1.796143912361003458e-01
-2.121068030828610063e-01
-2.606845673290081322e-01
-2.523201840813271701e-01
-1.751104925642721355e-01
-2.133936312748119235e-01
-2.262619131943210959e-01
-2.008470564032904804e-01
-2.677621223847381771e-01
-2.011687634512782097e-01
-2.326960541540756822e-01
-1.638507458847016096e-01
-1.014395785750821233e-01
-2.658318800968118012e-01
-1.529127062531188130e-01
-1.706065938924439251e-01
-1.673895234125666320e-01
-1.564514837809838355e-01
-2.462077501695603132e-01
-2.092114396509714425e-01
-1.728585432283580303e-01
-2.848125959280878305e-01
-1.985951070673763752e-01
-1.561297767329961061e-01
-1.567731908289715648e-01
-1.191334662144072354e-01
-1.992385211633518338e-01
-1.126993252546526492e-01
-1.760756137082353234e-01
-1.641724529326893389e-01
-1.696414727484807372e-01
-1.287846776540391147e-01
-1.718934220843948424e-01
-1.757539066602475941e-01
-9.468373056733980775e-02
-1.155946886865422130e-01
-1.493739287252537906e-01
-1.657809881726279855e-01
-1.995602282113395631e-01
-1.265327283181250095e-01
-1.387575961416587234e-01
-2.207928933785296977e-01
-1.628856247407384217e-01
-1.291063847020268440e-01
-1.348971115658059716e-01
-1.825097546679899096e-01
-1.165598098305054009e-01
-9.114495303947478533e-02
-1.612770895007997751e-01
-1.239590719342231750e-01
-2.294789836741983891e-01
-2.603628602810204029e-01
-2.581109109451062977e-01
-2.127502171788364649e-01
-2.198277722345665097e-01
-1.397227172856219113e-01
-1.603119683568365872e-01
-1.944129154435358942e-01
-1.181683450704440475e-01
-1.577383119729347527e-01
-1.731802502763457596e-01
-1.342536974698305130e-01
-1.538778273970820010e-01
-1.114124970627017319e-01
-1.278195565100759268e-01
-1.024046997190453112e-01
-8.181544864783063531e-02
-1.606336754048243165e-01
-7.892008521594107151e-02
-1.757539066602475941e-01
-1.368273538537323475e-01
-6.476497510448098183e-02
-1.069085983908735216e-01
-4.867962270509451628e-02
-6.862545968033373356e-02
2.145251375623047352e-02
6.327442999463528395e-02
1.269724254962056875e-01
-2.066377832670696080e-01
-3.548963373759761453e-02
-2.712525048991665244e-02
-3.548963373759761453e-02
6.166589475469663739e-02
2.434787718812003732e-02
3.625103796366602182e-02
-5.800912709673866630e-02
-1.027264067670330405e-01
-8.149374159984290600e-02
5.415556370280683041e-04
-2.133452362613752484e-02
3.528591681970283389e-02
8.262524788733571768e-03
1.887885737232863903e-02
-1.618721085833385587e-02
8.584231836721301079e-03
4.911931988317519426e-02
-1.618721085833385587e-02
4.461542121134698391e-02
5.812711722683161497e-02
6.649150047451257706e-02
1.263290114002302289e-01
6.070077361073344946e-02
3.785957320360466838e-02
5.619687493890523911e-02
6.970857095438987017e-02
1.276158395921811461e-01
1.343716875999234617e-01
1.063831744249910116e-01
1.671858064946718514e-01
1.314763241680338979e-01
9.512342774542048573e-02
1.562477668630890548e-01
1.346933946479111910e-01
9.319318545749410987e-02
1.237553550163283944e-01
1.475616765674203634e-01
1.038095180410891771e-01
1.665423923986963928e-01
1.952227146830409765e-02
1.855231082299724221e-01
2.675584054668433964e-01
2.466474473476409912e-01
3.154927556170150638e-01
2.566203658352605999e-01
2.431086698197759688e-01
1.115304871927946806e-01
1.301894959760829806e-01
1.771587249822914600e-01
1.987130971974693239e-01
1.276158395921811461e-01
1.929223703336901963e-01
1.340499805519357324e-01
1.427360708476044238e-01
1.913138350937515497e-01
1.459531413274817169e-01
1.806975025101564825e-01
1.710462910705246031e-01
1.845579870860092342e-01
1.527089893352240324e-01
2.032169958692975342e-01
2.135116214049048722e-01
1.488485047593712807e-01
1.469182624714449048e-01
1.816626236541196704e-01
1.417709497036412358e-01
1.391972933197394013e-01
3.592933091567829251e-02
2.707754759467206895e-01
2.891127776820212603e-01
3.254656741046346724e-01
3.975280528538860381e-01
3.492719956557266414e-01
3.264307952485978603e-01
2.949035045458003879e-01
3.450898040318861604e-01
3.824078215984627604e-01
2.974771609297022223e-01
3.267525022965855896e-01
3.209617754328064620e-01
2.977988679776899517e-01
3.669658832950517535e-01
2.958686256897635758e-01
3.550627225195057690e-01
3.187098260968923569e-01
4.268033942207694054e-01
2.283101456123404205e-01
2.894344847300089896e-01
2.997291102656163275e-01
2.305620949482545257e-01
2.125465002609416842e-01
2.682018195628188550e-01
2.556552446912974119e-01
1.620384937268681824e-01
2.312055090442299843e-01
3.064849582733586431e-01
2.804266873863525689e-01
2.624110926990397274e-01
1.829494518460705876e-01
2.855740001541562378e-01
2.524381742114201188e-01
1.774804320302791893e-01
1.771587249822914600e-01
1.768370179343037307e-01
1.784455531742423773e-01
1.778021390782669187e-01
1.787672602222301066e-01
1.803757954621687531e-01
1.787672602222301066e-01
1.784455531742423773e-01
1.787672602222301066e-01
1.787672602222301066e-01
1.784455531742423773e-01
1.787672602222301066e-01
1.787672602222301066e-01
1.787672602222301066e-01
1.774804320302791893e-01
1.784455531742423773e-01
1.787672602222301066e-01
1.784455531742423773e-01
1.797323813661932945e-01
1.790889672702178359e-01
1.790889672702178359e-01
1.790889672702178359e-01
1.794106743182055652e-01
1.790889672702178359e-01
1.948526126216165721e-01
2.183372271247208118e-01
2.894344847300089896e-01
2.926515552098862827e-01
2.682018195628188550e-01
1.732982404064387083e-01
1.494919188553467393e-01
1.215034056804142892e-01
1.150692647206597030e-01
1.511004540952853858e-01
2.299186808522790670e-01
1.150692647206597030e-01
1.845579870860092342e-01
1.584997161990031600e-01
1.749067756463773549e-01
1.752284826943650842e-01
1.372670510318130255e-01
3.271226043580099940e-02
1.880967646138742566e-01
5.415556370280683041e-04
1.855715032434090972e-02
1.511004540952853858e-01
1.147959526861086488e-02
3.818128025159239769e-02
-2.969890687381848693e-02
-8.144534658640623093e-03
-8.953641779953613877e-02
2.595641242805868387e-02
1.566178689245134592e-02
-4.771450156113132834e-02
-1.233156578382477164e-01
1.169995070085860789e-01
-9.114495303947478533e-02
-1.731802502763457596e-01
3.110372519586235285e-02
3.528591681970283389e-02
-2.969890687381848693e-02
-7.570301473606377840e-02
-2.069110953016206622e-02
-1.268544353661127388e-01
-5.865254119271412492e-02
-1.066979602910578251e-03
-1.265327283181250095e-01
-8.953641779953613877e-02
-6.122619757661595941e-02
-1.667461093165911734e-01
-9.275348827941343188e-02
-1.500173428212292492e-01
-1.818663405720144510e-01
-1.300715058459900320e-01
-1.255676071741618216e-01
-1.159163957345299423e-01
-4.288889584131538868e-02
-1.056217701989226043e-01
-7.666813588002696633e-02
-1.294280917500145733e-01
-1.197768803103826940e-01
-2.056726621231064200e-01
-1.252459001261740923e-01
-1.007961644791066647e-01
-9.050153894349932671e-02
-1.297497987980023026e-01
-1.204202944063581526e-01
-1.426180807175114751e-01
-1.451917371014133096e-01
-2.030990057392045856e-01
-1.184900521184317768e-01
-7.924179226392880082e-02
-1.236373648862354457e-01
-2.114633889868855476e-01
-3.002061392180621624e-02
-1.702848868444561958e-01
-1.406878384295850992e-01
-1.773624419001862407e-01
-1.300715058459900320e-01
-2.298006907221861184e-01
-1.545212414930574596e-01
-2.082463185070082545e-01
-2.249750850023701787e-01
-2.140370453707873821e-01
-1.220288296462967992e-01
-1.059434772469103336e-01
-1.432614948134869337e-01
-6.637351034441962838e-02
-1.741453714203089476e-01
-1.760756137082353234e-01
-2.156455806107260287e-01
-2.230448427144438028e-01
-8.664105436764657497e-02
-1.133427393506281078e-01
-1.915175520116463304e-01
-1.091605477267876267e-01
-8.085032750386744738e-02
-2.497465276974253356e-01
-1.982734000193886459e-01
-9.983104333514347672e-02
-6.830375263234600425e-02
-1.126993252546526492e-01
-7.822827610652893782e-03
-5.929595528868958354e-02
-9.753069898579269648e-03
-2.185409440426155925e-01
-1.735019573243334889e-01
-2.043858339311555028e-01
-2.844908888801001012e-01
-1.706065938924439251e-01
-1.451917371014133096e-01
-2.458860431215725839e-01
-1.828314617159776390e-01
-2.272270343382842839e-01
-1.458351511973887682e-01
-1.689980586525052786e-01
-2.166107017546892166e-01
-2.056726621231064200e-01
-1.162381027825176716e-01
-2.442775078816339374e-01
-1.699631797964684665e-01
-3.005762412794865668e-01
-8.471081207972019911e-02
-8.278056979179382324e-02
-3.015413624234497547e-01
-2.063160762190818787e-01
-4.070612741634249687e-01
-8.213715569581836462e-02
-2.072811973630450666e-01
-1.699631797964684665e-01
-1.918392590596340597e-01
-2.240099638584069908e-01
-1.204202944063581526e-01
-1.992385211633518338e-01
-7.184253016021102667e-02
-2.352697105379775167e-01
-1.371490609017200768e-01
-8.052862045587971807e-02
-1.387575961416587234e-01
-1.381141820456832647e-01
-1.126993252546526492e-01
-1.336102833738550544e-01
5.104956217110157013e-02
-5.768742004875093699e-02
-1.895873097237199545e-01
-5.704400595277547836e-02
-1.976299859234131873e-01
-2.079246114590205252e-01
-1.265327283181250095e-01
-1.394010102376341820e-01
-1.281412635580636561e-01
-4.063694650540128350e-02
1.727032213238999248e-02
-1.442266159574501216e-01
-1.490522216772660613e-01
-4.867962270509451628e-02
-3.838499716948717833e-02
-4.353230993729084730e-02
-1.024046997190453112e-01
-6.862545968033373356e-02
-1.287846776540391147e-01
-7.634642883203923702e-02
-6.122619757661595941e-02
-7.280765130417421460e-02
-6.573009624844416976e-02
-8.144534658640623093e-03
-2.413821444497443736e-01
-8.631934731965884566e-02
-2.021338845952413976e-01
-2.124285101308487356e-01
-1.776841489481739700e-01
-1.751104925642721355e-01
-1.702848868444561958e-01
-1.181683450704440475e-01
-1.487305146292783320e-01
4.268517892342060804e-02
-8.760617551160976291e-02
-4.235655069351196289e-04
3.174713929183781147e-02
4.723747260868549347e-03
7.131710619432851672e-02
1.015575687051750720e-01
9.383659955346956849e-02
6.230930885067209601e-02
8.997611497761681676e-02
5.330151150701567531e-02
7.453417667420580983e-02
1.096002449048683047e-01
1.012358616571873426e-01
-3.613304783357307315e-02
1.247204761602915823e-01
8.547221630578860641e-02
1.646121501107700169e-01
1.031661039451137185e-01
1.771587249822914600e-01
1.031661039451137185e-01
7.678612601011991501e-02
1.691160487825982273e-01
1.813409166061319411e-01
1.694377558305859566e-01
1.684726346866227686e-01
9.512342774542048573e-02
1.363019298878498375e-01
1.485267977113835514e-01
1.420926567516289651e-01
1.276158395921811461e-01
1.121739012887701392e-01
2.463257402996532619e-01
1.671858064946718514e-01
2.321706301881931722e-01
1.166777999605983496e-01
1.266507184482179582e-01
2.012867535813711584e-01
3.496420977171510458e-02
2.855740001541562378e-01
1.488485047593712807e-01
1.568911809590645134e-01
1.150692647206597030e-01
6.777832866646349430e-02
1.504570399993099272e-01
1.446663131355307996e-01
1.871316434699110687e-01
1.607516655349172652e-01
1.507787470472976565e-01
1.546392316231504083e-01
2.180155200767330825e-01
2.147984495968557894e-01
2.704537688987329602e-01
1.909921280457638204e-01
2.299186808522790670e-01
2.286318526603281498e-01
1.758718967903405428e-01
1.549609386711381376e-01
1.681509276386350393e-01
2.456823262036778033e-01
1.453097272315062582e-01
2.276667315163649619e-01
2.273450244683772326e-01
1.253638902562670410e-01
2.511513460194692016e-01
2.035387029172852635e-01
2.022518747253343463e-01
1.877750575658865273e-01
1.819843307021073997e-01
1.871316434699110687e-01
2.035387029172852635e-01
1.231119409203529358e-01
1.346933946479111910e-01
1.343716875999234617e-01
1.842362800380215049e-01
8.032490353798493743e-02
1.897052998538129032e-01
2.360311147640459239e-01
2.408567204838618636e-01
1.285809607361443341e-01
3.444463899359107018e-01
2.517947601154446602e-01
3.100237358012236655e-01
1.655772712547332048e-01
1.861665223259478807e-01
2.514730530674569309e-01
1.707245840225368738e-01
2.350659936200827360e-01
2.244496610364876688e-01
1.404841215116903186e-01
2.411784275318495929e-01
1.806975025101564825e-01
1.726548263104632497e-01
2.887910706340335310e-01
2.289535597083158791e-01
1.864882293739356101e-01
2.234845398925244808e-01
2.498645178275182843e-01
2.215542976045981050e-01
2.704537688987329602e-01
2.299186808522790670e-01
1.115304871927946806e-01
1.858448152779601514e-01
2.884693635860458016e-01
1.556043527671135962e-01
2.093294297810643911e-01
2.302403879002667964e-01
2.003216324374079704e-01
2.125465002609416842e-01
1.732982404064387083e-01
2.102945509250275791e-01
2.759227887145243585e-01
1.993565112934447825e-01
2.135116214049048722e-01
2.238062469405122101e-01
2.788181521464139223e-01
4.075009713415056467e-01
4.551136144436895847e-01
3.032678877934813499e-01
3.528107731835916638e-01
3.602100352873094380e-01
3.338300573523156345e-01
1.443446060875430703e-01
2.688452336587943137e-01
2.524381742114201188e-01
2.682018195628188550e-01
2.254147821804508567e-01
2.534032953553833067e-01
1.861665223259478807e-01
2.131899143569171429e-01
1.916355421417392790e-01
2.209108835086226463e-01
1.620384937268681824e-01
7.646441896213218570e-02
2.215542976045981050e-01
-2.997221890836954117e-03
3.061632512253709137e-01
1.584997161990031600e-01
5.040614807512611151e-02
9.254977136151865125e-02
6.906515685841441154e-02
1.009141546091996133e-01
1.437495870050042868e-02
4.139835073146969080e-02
1.440228990395553410e-01
3.758626116905361414e-03
-2.004769543418660760e-02
-1.297014037845656276e-02
5.688868404831737280e-03
1.373154460452497005e-02
2.627811947604641318e-02
2.145251375623047352e-02
-9.950933628715574741e-02
-1.200985873583704233e-01
-8.728446846362203360e-02
-1.345754045178182423e-01
-1.612770895007997751e-01
-9.725738695124164224e-02
-1.155946886865422130e-01
-1.628856247407384217e-01
-1.464785652933642268e-01
-1.361839397577568889e-01
-1.200985873583704233e-01
-2.365565387299284339e-01
-1.529127062531188130e-01
-1.053000631509348750e-01
-2.371999528259038925e-01
-2.449209219776093960e-01
-1.316800410859286785e-01
-2.983242919435724616e-01
-3.259910980705171824e-01
-2.433123867376707494e-01
-1.883004815317690372e-01
-2.426689726416952908e-01
-1.448700300534255803e-01
-2.690489505766890943e-01
-2.053509550751186907e-01
-1.854051180998794734e-01
-2.265836202423088253e-01
-2.140370453707873821e-01
-5.045385097037069499e-01
-4.453444128739647567e-01
-4.614297652733512223e-01
-4.382668578182347119e-01
-3.694215495488606393e-01
-4.147822433151304722e-01
-3.153747654869221151e-01
-3.234174416866153479e-01
-3.761773975566029549e-01
-5.338138510705903172e-01
-3.250259769265539944e-01
-2.555372545612044632e-01
-3.391810870380140841e-01
-3.237391487346030772e-01
-3.128011091030202806e-01
-2.201494792825542390e-01
-2.256184990983456373e-01
-1.944129154435358942e-01
-2.182192369946278632e-01
-2.400953162577934563e-01
-2.507116488413885236e-01
-1.059434772469103336e-01
-1.101256688707508147e-01
-1.567731908289715648e-01
-1.461568582453764975e-01
-9.918762923916801810e-02
-2.256184990983456373e-01
-1.751104925642721355e-01
-7.956349931191653013e-02
-1.818663405720144510e-01
-2.034207127871923149e-01
-2.996111201355233788e-01
-3.488322984776459634e-01
-4.141388292191550136e-01
-4.636817146092653275e-01
-3.510842478135600686e-01
-2.877079593599773943e-01
-3.465803491417318583e-01
-2.748396774404682219e-01
-1.686763516045175493e-01
-2.655101730488240719e-01
-2.497465276974253356e-01
-3.082972104311920702e-01
-2.259402061463333666e-01
-2.735528492485173047e-01
-1.435832018614746630e-01
-1.303932128939777613e-01
-1.329668692778795958e-01
-1.725368361803703010e-01
-1.622422106447629631e-01
-2.420255585457198322e-01
-2.143587524187751114e-01
-2.085680255549959838e-01
-2.973591707996092737e-01
-1.966648647794499993e-01
-3.063669681432656944e-01
-3.401462081819772720e-01
-3.520493689575232565e-01
-2.835257677361369133e-01
-3.652393579250201583e-01
-3.221306134946644306e-01
-4.173558996990323067e-01
-3.697432565968483686e-01
-4.887748643523082137e-01
-5.235192255349829793e-01
-6.045894016278907657e-01
-6.274306020350195467e-01
-5.949381901882588863e-01
-6.306476725148968399e-01
-7.091441922239027917e-01
-6.312910866108722985e-01
-6.817990931449458003e-01
-6.415857121464796364e-01
-6.637834984576329589e-01
-5.881823421805165708e-01
-4.546739172656089067e-01
-3.810030032764188945e-01
-4.234683336107991636e-01
-3.488322984776459634e-01
-3.543013182934373617e-01
-2.748396774404682219e-01
-3.507625407655723393e-01
-3.935495781479403377e-01
-3.436849857098422945e-01
-3.800378821324557066e-01
-3.462586420937441289e-01
-3.465803491417318583e-01
-4.183210208429954946e-01
-2.928552721277810633e-01
-2.626148096169345081e-01
-1.924826731556095183e-01
-2.140370453707873821e-01
-1.924826731556095183e-01
-1.854051180998794734e-01
-1.162381027825176716e-01
-1.049783561029471457e-01
-3.677646192954853177e-02
-1.110907900147140026e-01
1.855715032434090972e-02
5.330151150701567531e-02
9.254977136151865125e-02
1.781238461262546480e-01
3.791907511185854673e-01
5.818661913508549333e-01
8.051308826543390751e-01
1.040620441781356931e+00
9.219105410738848150e-01
9.193368846899829805e-01
9.267361467937007546e-01
8.511349905165843666e-01
9.251276115537621081e-01
8.862010587472468615e-01
9.026081181946210563e-01
8.270069619175046682e-01
8.890964221791364253e-01
7.774640765273943543e-01
7.919408936868421733e-01
7.884021161589771509e-01
7.395026448648422956e-01
6.761263564112596214e-01
7.266343629453331232e-01
5.973081296542659402e-01
6.819170832750387490e-01
7.533360479283146560e-01
5.635288896155543625e-01
6.616495392518118024e-01
6.539285701001062989e-01
6.735527000273577869e-01
5.036913786898367107e-01
4.206909603090025485e-01
3.000508173136040568e-01
3.376905419281683862e-01
2.903996058739721775e-01
1.845579870860092342e-01
2.611242645070888102e-01
2.772096169064752758e-01
2.720623041386716068e-01
3.318998150643892586e-01
3.113105639931745827e-01
2.505079319234937429e-01
1.829494518460705876e-01
1.478833836154080927e-01
1.575345950550399721e-01
2.122247932129539549e-01
3.232137247687205672e-01
2.723840111866593361e-01
2.421435486758127809e-01
1.842362800380215049e-01
1.546392316231504083e-01
1.372670510318130255e-01
1.784455531742423773e-01
1.758718967903405428e-01
9.673196298535913229e-02
1.388755862717516720e-01
1.642904430627822876e-01
1.276158395921811461e-01
1.398407074157148600e-01
1.083134167129173875e-01
1.768370179343037307e-01
1.118521942407824099e-01
-7.956349931191653013e-02
1.501353329513221979e-01
1.527089893352240324e-01
1.105653660488314927e-01
1.295460818801075220e-01
2.115813791169784963e-01
1.018792757531628013e-01
1.266507184482179582e-01
1.375887580798007548e-01
7.324734848225489259e-02
4.397200711537152529e-02
1.263290114002302289e-01
1.890618857578374445e-01
2.736708393786102533e-01
1.806975025101564825e-01
1.835928659420460463e-01
2.887910706340335310e-01
2.411784275318495929e-01
7.614271191414445639e-02
2.875042424420826137e-01
8.740245859371498227e-02
1.141041435766965151e-01
1.292243748321197927e-01
1.105653660488314927e-01
5.491004674695432186e-02
1.597865443909540772e-01
9.769708412932232022e-02
1.266507184482179582e-01
1.729765333584509790e-01
1.781238461262546480e-01
1.630036148708313704e-01
1.909921280457638204e-01
2.415001345798373222e-01
1.845579870860092342e-01
2.045038240612484515e-01
2.341008724761195481e-01
1.584997161990031600e-01
7.228222733829170465e-02
8.997611497761681676e-02
7.582100486615672708e-02
7.549929781816899776e-02
1.096002449048683047e-01
1.485267977113835514e-01
8.096831763396039605e-02
1.150692647206597030e-01
2.469691543956287205e-01
1.572128880070522428e-01
1.617167866788804531e-01
9.673196298535913229e-02
8.289855992188677192e-02
1.359802228398621082e-01
1.385538792237639427e-01
1.630036148708313704e-01
1.745850685983896255e-01
7.421246962621808052e-02
2.456823262036778033e-01
3.930241541820578277e-01
4.956487024901434779e-01
5.509823147440329194e-01
6.018120283260941505e-01
5.033696716418489814e-01
5.448698808322660625e-01
4.737726232269778848e-01
3.840163568384014070e-01
4.203692532610148191e-01
3.904504977981559932e-01
4.055707290535792708e-01
3.466983392718248069e-01
2.550118305953219533e-01
6.359613704262301326e-02
1.855231082299724221e-01
-4.128036060137674212e-02
-1.754321996122598648e-01
-3.620222874451428652e-01
-4.514568467857316136e-01
-4.771934106247499585e-01
-5.769225955009460449e-01
-4.215380913228727877e-01
-5.013214392238296568e-01
-4.504917256417684257e-01
-4.981043687439523637e-01
-4.936004700721241534e-01
-4.421273423940874636e-01
-4.305458886665292084e-01
-4.424490494420751929e-01
-4.212163842748850584e-01
-4.627165934653021395e-01
-4.154256574111059308e-01
-3.414330363739281893e-01
-4.102783446433022618e-01
-3.842200737562961876e-01
-4.208946772268973291e-01
-3.430415716138668358e-01
-3.250259769265539944e-01
-4.726895119529217482e-01
-5.190153268631547689e-01
-5.640543135814368725e-01
-4.353714943863451481e-01
-5.235192255349829793e-01
-4.591778159374371171e-01
-4.360149084823206067e-01
-4.019139613956212997e-01
-3.951581133878789842e-01
-3.713517918367870152e-01
-3.562315605813637376e-01
-4.176776067470200360e-01
-4.044876177795231342e-01
-3.073320892872288823e-01
-3.710300847887992859e-01
-3.034716047113761306e-01
-2.529635981773026288e-01
-2.529635981773026288e-01
-2.674404153367504478e-01
-1.509824639651924372e-01
1.626819078228436410e-01
3.171012908569537103e-01
4.596175131155177951e-01
6.169322595815174282e-01
8.202511139097623527e-01
6.590758828679099679e-01
7.990184487425722182e-01
6.355912683648057282e-01
6.947853651945479214e-01
5.947344732703641057e-01
5.792925349669530988e-01
4.905013897223398089e-01
2.981205750256776810e-01
3.785473370226100087e-01
4.573655637796036899e-01
3.672875903430394828e-01
4.602609272114932537e-01
3.859465991263277829e-01
4.081443854374811053e-01
3.898070837021805346e-01
3.373688348801806569e-01
2.170503989327698946e-01
2.830003437702544034e-01
2.884693635860458016e-01
2.151201566448435187e-01
1.359802228398621082e-01
9.415830660145729780e-02
1.282592536881566048e-01
7.871636829804629087e-02
4.043322958750650287e-02
7.839466125005856156e-02
-4.674938041716814041e-02
-4.900132975308224559e-02
-4.192377469735220075e-02
-8.792788255959749222e-02
-1.226722437422722578e-01
-1.091605477267876267e-01
-1.191334662144072354e-01
-1.956997436354868114e-01
-1.217071225983090699e-01
-1.001527503831312060e-01
-1.825097546679899096e-01
-1.709283009404316545e-01
-1.979516929714009166e-01
-2.201494792825542390e-01
-1.564514837809838355e-01
-1.172032239264808595e-01
-1.747887855162844062e-01
-4.173558996990323067e-01
-6.579927715938538313e-01
-7.409931899746879935e-01
-8.526255356264300644e-01
-8.587379695381969213e-01
-7.921446106047369540e-01
-7.754158441093750298e-01
-8.256021435954608023e-01
-6.698959323693998158e-01
-7.619041480938903987e-01
-6.444810755783692002e-01
-6.837293354328721762e-01
-7.667297538137063384e-01
-6.406205910025164485e-01
-6.251786526991054416e-01
-6.074847650597803295e-01
-5.058253378956578672e-01
-5.344572651665657759e-01
-5.251277607749216259e-01
-4.617514723213389516e-01
-4.961741264560259879e-01
-4.572475736495107412e-01
-4.327978380024433136e-01
-3.121576950070448220e-01
-3.488322984776459634e-01
-2.931769791757687926e-01
-2.783784549683332443e-01
-2.873862523119896650e-01
-2.333394682500511408e-01
-1.706065938924439251e-01
-2.030990057392045856e-01
-2.005253493553027511e-01
-1.477653934853151441e-01
-2.030990057392045856e-01
-1.583817260689102113e-01
-2.140370453707873821e-01
-1.561297767329961061e-01
-1.979516929714009166e-01
-1.268544353661127388e-01
-1.088388406787998974e-01
-1.107690829667262733e-01
-2.030990057392045856e-01
-6.214292370714247227e-03
-1.554379676235839725e-02
-5.570878274738788605e-03
-4.284050082787871361e-03
-5.892585322726517916e-03
4.172005777945742011e-02
-2.422988705802708864e-02
2.981205750256776810e-01
3.685744185349904001e-01
6.310873696929775178e-01
6.388083388446830213e-01
7.655609157518483698e-01
8.443791425088420510e-01
6.857775678508915007e-01
5.937693521264009178e-01
6.471727220923639834e-01
6.561805194360204041e-01
6.745178211713209748e-01
5.007960152579471469e-01
5.879786252626217902e-01
4.058924361015670002e-01
4.792416430427692831e-01
4.438538677641190588e-01
4.303421717486344278e-01
3.959195176139473915e-01
3.248222600086592138e-01
4.004234162857756019e-01
3.431595617439597845e-01
2.939383834018371999e-01
3.582797929993830621e-01
2.865391212981194258e-01
2.765662028104998171e-01
2.804266873863525689e-01
2.556552446912974119e-01
2.225194187485612929e-01
2.540467094513587654e-01
3.071283723693341017e-01
3.750085594947449863e-01
4.007451233337633312e-01
3.750085594947449863e-01
4.663733611232601106e-01
4.837455417145974934e-01
3.495937027037143707e-01
3.238571388646960258e-01
2.839654649142175913e-01
1.157126788166351616e-01
1.372670510318130255e-01
2.434787718812003732e-02
2.150090876966714859e-03
-4.546255222521722317e-02
-5.028815794503316283e-02
-9.790080104721710086e-02
-1.133427393506281078e-01
-2.803086972562596202e-01
-1.300715058459900320e-01
-8.792788255959749222e-02
-6.701692444039508700e-02
-1.406878384295850992e-01
-1.146295675425790250e-01
-1.464785652933642268e-01
-2.050292480271309614e-01
-1.358622327097691596e-01
-1.625639176927506924e-01
-5.672229890478774905e-02
-1.780058559961616993e-01
-1.809012194280512631e-01
-1.796143912361003458e-01
-2.298006907221861184e-01
-1.246024860301986337e-01
-2.323743471060879529e-01
-1.722151291323825717e-01
-2.825606465921737254e-01
-1.365056468057446182e-01
-3.279213403584435582e-01
-3.224523205426521599e-01
-2.175758228986524045e-01
-1.940912083955481648e-01
-2.207928933785296977e-01
-2.603628602810204029e-01
-2.182192369946278632e-01
-1.783275630441494286e-01
-2.101765607949346304e-01
-2.597194461850449443e-01
-2.429906796896830201e-01
-1.834748758119530976e-01
-2.211146004265174270e-01
-2.195060651865787804e-01
-1.940912083955481648e-01
-2.819172324961982667e-01
-2.005253493553027511e-01
-2.320526400581002235e-01
-1.638507458847016096e-01
-1.007961644791066647e-01
-2.642233448568731546e-01
-1.503390498692169785e-01
-1.693197657004930079e-01
-1.664244022686034441e-01
-1.545212414930574596e-01
-2.452426290255971253e-01
-2.076029044110327959e-01
-1.712500079884193838e-01
-2.844908888801001012e-01
-1.973082788754254580e-01
-1.561297767329961061e-01
-1.558080696850083768e-01
-1.194551732623949647e-01
-1.982734000193886459e-01
-1.110907900147140026e-01
-1.754321996122598648e-01
-1.622422106447629631e-01
-1.670678163645789027e-01
-1.278195565100759268e-01
-1.706065938924439251e-01
-1.751104925642721355e-01
-9.307519532740116119e-02
-1.139861534466035664e-01
-1.477653934853151441e-01
-1.635290388367138803e-01
-1.976299859234131873e-01
-1.236373648862354457e-01
-1.381141820456832647e-01
-2.185409440426155925e-01
-1.615987965487875044e-01
-1.278195565100759268e-01
-1.332885763258673251e-01
-1.689980586525052786e-01
-1.053000631509348750e-01
-9.757909399922937155e-02
-1.831531687639653683e-01
-9.243178123142570257e-02
-2.410604374017566442e-01
-2.584326179930940270e-01
-2.571457898011431098e-01
-2.111416819388978183e-01
-2.185409440426155925e-01
-1.374707679497078061e-01
-1.593468472128733993e-01
-1.937695013475604355e-01
